bm3wthwme3,,bm3wthwme_n_DMSO_0.5ul,,bm3wthwme_n_4_phenylimidazole_0.5ul,,bm3wthwme_n_4_phenylimidazole_1.0ul1,,
Wavelength (nm),Abs,Wavelength (nm),Abs,Wavelength (nm),Abs,Wavelength (nm),Abs,
800.0552368,0.00415183045,800.0552368,0.004349322058,800.0552368,0.004612305202,800.0552368,0.006653598044,
798.9443359,0.004859923851,798.9443359,0.005806897301,798.9443359,0.007161811925,798.9443359,0.00759021705,
797.9719238,0.003513386706,797.9719238,0.004903092049,797.9719238,0.005391438026,797.9719238,0.006338731851,
796.9991455,0.005829538219,796.9991455,0.005784178618,796.9991455,0.00635486003,796.9991455,0.00539951073,
796.026001,0.001728605945,796.026001,0.004781085066,796.026001,0.004761612974,796.026001,0.005392695777,
795.0524292,0.002707552398,795.0524292,0.005258183926,795.0524292,0.006217685994,795.0524292,0.005901272409,
793.9393921,0.004973312374,793.9393921,0.007769329473,793.9393921,0.006419745274,793.9393921,0.005841685459,
792.9650269,0.003151869401,792.9650269,0.003981126472,792.9650269,0.004283150658,792.9650269,0.005265939515,
791.9902954,0.005651197396,791.9902954,0.007386217359,791.9902954,0.008554257452,791.9902954,0.007929797284,
791.0151978,0.004694148432,791.0151978,0.004833354615,791.0151978,0.006828826852,791.0151978,0.004765643273,
790.0397339,0.003648220561,790.0397339,0.005943101365,790.0397339,0.00495707849,790.0397339,0.005572582129,
789.0639038,0.004482637625,789.0639038,0.004907359369,789.0639038,0.007053112611,789.0639038,0.006505293772,
787.9481812,0.005906048231,787.9481812,0.006513833534,787.9481812,0.005657124333,787.9481812,0.007299521472,
786.9715576,0.003107414581,786.9715576,0.004467782099,786.9715576,0.00523793092,786.9715576,0.006440158933,
785.9945679,0.005290989298,785.9945679,0.006740218028,785.9945679,0.006637432612,785.9945679,0.006700783502,
785.0171509,0.004816209897,785.0171509,0.004092482384,785.0171509,0.005216892809,785.0171509,0.006467772182,
784.0394287,0.003714530729,784.0394287,0.00612613,784.0394287,0.006483983714,784.0394287,0.005864118226,
783.0612793,0.004304823,783.0612793,0.004917884246,783.0612793,0.006020524073,783.0612793,0.006924345158,
781.9429932,0.003564251121,781.9429932,0.004916732199,781.9429932,0.005119130015,781.9429932,0.005437935703,
780.9641113,0.006575274281,780.9641113,0.006464461796,780.9641113,0.006878529675,780.9641113,0.007017885335,
779.9848022,0.00518136844,779.9848022,0.004385196604,779.9848022,0.007714254782,779.9848022,0.006377791986,
779.005127,0.004908014089,779.005127,0.005295260344,779.005127,0.006251167972,779.005127,0.00547754392,
778.0251465,0.003831616137,778.0251465,0.004926392809,778.0251465,0.005213670433,778.0251465,0.004526004195,
777.0447388,0.005288106855,777.0447388,0.006509603001,777.0447388,0.006697970442,777.0447388,0.005444986746,
776.0639648,0.003345072502,776.0639648,0.005232166965,776.0639648,0.005652036984,776.0639648,0.005282840226,
774.942688,0.005003608298,774.942688,0.005957298912,774.942688,0.007017333061,774.942688,0.007071346045,
773.9611206,0.00327738421,773.9611206,0.005303095095,773.9611206,0.006034513935,773.9611206,0.006513019092,
772.979248,0.004463728052,772.979248,0.005066773389,772.979248,0.005738142412,772.979248,0.006482644007,
771.9969482,0.005161747802,771.9969482,0.006251483224,771.9969482,0.006359771825,771.9969482,0.006484378129,
771.0143433,0.004179481417,771.0143433,0.005944282282,771.0143433,0.006976479199,771.0143433,0.008058889769,
770.031311,0.004598387051,770.031311,0.006390164606,770.031311,0.007010124624,770.031311,0.007953261025,
769.0479736,0.00528312847,769.0479736,0.006151413079,769.0479736,0.005790736992,769.0479736,0.006274751388,
768.06427,0.003566547995,768.06427,0.005827649031,768.06427,0.005925860256,768.06427,0.007267669309,
766.9395752,0.004150628112,766.9395752,0.006946202833,766.9395752,0.006119855214,766.9395752,0.005786251277,
765.9550781,0.004503901582,765.9550781,0.006179743446,765.9550781,0.005829328205,765.9550781,0.006978741381,
764.9702148,0.004379470367,764.9702148,0.005016177893,764.9702148,0.007392984349,764.9702148,0.006765142083,
763.9849854,0.005513275973,763.9849854,0.005425249226,763.9849854,0.00671766093,763.9849854,0.006109774113,
762.9993896,0.005357891321,762.9993896,0.006010970101,762.9993896,0.008095758036,762.9993896,0.006464593112,
762.0134277,0.006708038971,762.0134277,0.007398381829,762.0134277,0.008427129127,762.0134277,0.007396643981,
761.0271606,0.00525378203,761.0271606,0.005495160818,761.0271606,0.007191919256,761.0271606,0.006053308025,
760.0404663,0.004259596579,760.0404663,0.003643260803,760.0404663,0.006620873697,760.0404663,0.006165617146,
759.0534668,0.005247860681,759.0534668,0.006630073301,759.0534668,0.006962169427,759.0534668,0.006218605209,
758.06604,0.005510628223,758.06604,0.007514805533,758.06604,0.006924792659,758.06604,0.007163364906,
756.9371948,0.006061576772,756.9371948,0.006308500189,756.9371948,0.006692344788,756.9371948,0.006924161222,
755.9490356,0.006877004169,755.9490356,0.006930842064,755.9490356,0.007619590033,755.9490356,0.007719682995,
754.9605713,0.004277059343,754.9605713,0.006216163281,754.9605713,0.007476248778,754.9605713,0.006683275569,
753.9716797,0.005099537782,753.9716797,0.006072391756,753.9716797,0.00736507494,753.9716797,0.006760909222,
752.9824829,0.005413271021,752.9824829,0.005615506787,752.9824829,0.00612085266,752.9824829,0.007376053836,
751.9929199,0.004742063582,751.9929199,0.006067456678,751.9929199,0.005621721502,751.9929199,0.00711494498,
751.0029907,0.004793464672,751.0029907,0.006687586661,751.0029907,0.007460237015,751.0029907,0.007246085443,
750.0126953,0.006130356807,750.0126953,0.006717792246,750.0126953,0.008326635696,750.0126953,0.007063978817,
749.0220337,0.004564064089,749.0220337,0.005978268106,749.0220337,0.006667056587,749.0220337,0.006335107144,
748.0310669,0.005738483276,748.0310669,0.005785752553,748.0310669,0.006968035363,748.0310669,0.005885187536,
747.0397339,0.004953727126,747.0397339,0.005430937279,747.0397339,0.007560319733,747.0397339,0.005908331368,
746.0480347,0.004610656761,746.0480347,0.005856640637,746.0480347,0.006736510899,746.0480347,0.00627540797,
745.0559692,0.004281477537,745.0559692,0.005936514586,745.0559692,0.007831764407,745.0559692,0.006007059477,
744.0635376,0.006140149664,744.0635376,0.005169868469,744.0635376,0.006676099263,744.0635376,0.00567556126,
743.0708008,0.005466193426,743.0708008,0.006245968398,743.0708008,0.007054901682,743.0708008,0.00596126169,
741.935791,0.006407056469,741.935791,0.006659643725,741.935791,0.007396986242,741.935791,0.006965246983,
740.9423218,0.005491097458,740.9423218,0.00622388348,740.9423218,0.007608525455,740.9423218,0.006183892023,
739.9484253,0.005610708147,739.9484253,0.006540426984,739.9484253,0.006798929069,739.9484253,0.006318717264,
738.9542236,0.005609947722,738.9542236,0.005244664382,738.9542236,0.00742105348,738.9542236,0.006071971729,
737.9597168,0.004432083573,737.9597168,0.006279530935,737.9597168,0.006834454369,737.9597168,0.006118306424,
736.9647827,0.005337554961,736.9647827,0.006213537417,736.9647827,0.008066036738,736.9647827,0.007080080919,
735.9695435,0.004425415304,735.9695435,0.005648103077,735.9695435,0.006514437962,735.9695435,0.00607693335,
734.973938,0.005536163691,734.973938,0.006218946539,734.973938,0.006942704786,734.973938,0.006900043227,
733.9780273,0.006174859591,733.9780273,0.006282025948,733.9780273,0.007195630111,733.9780273,0.0064828014,
732.9817505,0.005539047532,732.9817505,0.00645523984,732.9817505,0.007323793601,732.9817505,0.007355965208,
731.9851074,0.006393763702,731.9851074,0.007501031272,731.9851074,0.008092724718,731.9851074,0.007584264036,
730.9880981,0.007295677904,730.9880981,0.006605288014,730.9880981,0.008233394474,730.9880981,0.007512724958,
729.9907837,0.0066660312,729.9907837,0.007321950514,729.9907837,0.007901089266,729.9907837,0.00703572249,
728.993103,0.00706924079,728.993103,0.006878766231,728.993103,0.007418420166,728.993103,0.006540926173,
727.9951172,0.007756100502,727.9951172,0.006078875624,727.9951172,0.006963589694,727.9951172,0.006762250327,
726.9967041,0.006040892564,726.9967041,0.006872954313,726.9967041,0.00759611791,726.9967041,0.007001469843,
725.9980469,0.006308500189,725.9980469,0.006279951427,725.9980469,0.007539300248,725.9980469,0.006620453205,
724.9989624,0.006254371721,724.9989624,0.006812786683,724.9989624,0.00711778691,724.9989624,0.006313254125,
723.9995728,0.006937417667,723.9995728,0.007146285847,723.9995728,0.007636740338,723.9995728,0.006913877092,
722.9998779,0.006643530913,722.9998779,0.00671095727,722.9998779,0.007885878906,722.9998779,0.006062206812,
721.9998169,0.00572872581,721.9998169,0.006323943846,721.9998169,0.007666906808,721.9998169,0.006721762009,
720.9993896,0.007115076762,720.9993896,0.006856228691,720.9993896,0.008141147904,720.9993896,0.006826644298,
719.9986572,0.006324495655,719.9986572,0.006484404206,719.9986572,0.007033986039,719.9986572,0.006463016849,
718.9975586,0.006827854086,718.9975586,0.007693886757,718.9975586,0.007873964496,718.9975586,0.006669658702,
717.9960938,0.006767955609,717.9960938,0.006725600455,717.9960938,0.006968692876,717.9960938,0.006502718665,
716.9943237,0.006756413262,716.9943237,0.006926975679,716.9943237,0.006681777071,716.9943237,0.006368597969,
715.9922485,0.007197182626,715.9922485,0.007043246645,715.9922485,0.007363574114,715.9922485,0.006648156792,
714.9898071,0.006778130773,714.9898071,0.006919663865,714.9898071,0.007488969248,714.9898071,0.006537930574,
713.9869995,0.006886709016,713.9869995,0.007157680579,713.9869995,0.007381398696,713.9869995,0.006831272505,
712.9838867,0.006935339887,712.9838867,0.007109051105,712.9838867,0.007429321762,712.9838867,0.006708512083,
711.9804077,0.006753047928,711.9804077,0.006952752359,711.9804077,0.007205551956,711.9804077,0.006443232764,
710.9766235,0.007700157817,710.9766235,0.007859018631,710.9766235,0.007915114053,710.9766235,0.006820543669,
709.9724731,0.007674283814,709.9724731,0.007219606545,709.9724731,0.007644011639,709.9724731,0.006970875897,
708.9680176,0.006617088802,708.9680176,0.006612568162,708.9680176,0.007384216413,708.9680176,0.006109485403,
707.9631958,0.007103499025,707.9631958,0.006782442797,707.9631958,0.007433640305,707.9631958,0.007068898994,
706.9580688,0.00701354444,706.9580688,0.006805424113,706.9580688,0.007657817099,706.9580688,0.005889045075,
705.9526367,0.007487257011,705.9526367,0.007461896166,705.9526367,0.007422369905,705.9526367,0.006299701519,
704.9468384,0.007295388263,704.9468384,0.006530362181,704.9468384,0.007168996613,704.9468384,0.006218289956,
703.9406738,0.007357755676,703.9406738,0.007474774029,703.9406738,0.007758551277,703.9406738,0.006612909958,
702.9342041,0.007802246138,702.9342041,0.006762644276,702.9342041,0.007243664004,702.9342041,0.006762592122,
702.0712891,0.007891335525,702.0712891,0.007741448935,702.0712891,0.008003277704,702.0712891,0.006890469696,
701.064209,0.007032354828,701.064209,0.007293887902,701.064209,0.007764902432,701.064209,0.006760672666,
700.0567627,0.007365785539,700.0567627,0.007759763394,700.0567627,0.00799320545,700.0567627,0.006387537811,
699.0490112,0.007198445965,699.0490112,0.007928689942,699.0490112,0.007906809449,699.0490112,0.007037932053,
698.0409546,0.00733327074,698.0409546,0.007132865023,698.0409546,0.00759179797,698.0409546,0.006919111125,
697.0325317,0.007125786506,697.0325317,0.00714504905,697.0325317,0.007457840722,697.0325317,0.006675678771,
696.0238037,0.008003989235,696.0238037,0.007348751184,696.0238037,0.007695783861,696.0238037,0.007380029652,
695.0147705,0.007808676455,695.0147705,0.007163180504,695.0147705,0.007495895494,695.0147705,0.006920821033,
694.0053711,0.007419367786,694.0053711,0.007971374318,694.0053711,0.008691827767,694.0053711,0.007720815949,
692.9956055,0.008245160803,692.9956055,0.008065904491,692.9956055,0.008535328321,692.9956055,0.007566140965,
691.9855957,0.008005307987,691.9855957,0.008346849121,691.9855957,0.008467962034,691.9855957,0.007204183377,
690.9752197,0.007559898309,690.9752197,0.008036870509,690.9752197,0.007323398255,690.9752197,0.006745660212,
689.9645386,0.008179184049,689.9645386,0.007491102442,689.9645386,0.008108311333,689.9645386,0.006826039404,
688.9534912,0.007599173579,688.9534912,0.007645618636,688.9534912,0.007437774446,688.9534912,0.00734672416,
687.9421387,0.00742682023,687.9421387,0.007379424293,687.9421387,0.008218541741,687.9421387,0.008167208172,
686.930481,0.007493209094,686.930481,0.007969211787,686.930481,0.008023844101,686.930481,0.00778026646,
686.0630493,0.009012105875,686.0630493,0.006838188507,686.0630493,0.00717083877,686.0630493,0.006783599965,
685.0507813,0.008874143474,685.0507813,0.008816101588,685.0507813,0.008504362777,685.0507813,0.007709353697,
684.038147,0.00894350186,684.038147,0.006776579656,684.038147,0.007036011666,684.038147,0.006802005693,
683.0252686,0.008039059117,683.0252686,0.00771723222,683.0252686,0.008122817613,683.0252686,0.008545545861,
682.0120239,0.008219755255,682.0120239,0.006955909077,682.0120239,0.007686561905,682.0120239,0.007108840626,
680.9984131,0.009175650775,680.9984131,0.007818560116,680.9984131,0.008772172965,680.9984131,0.007937917486,
679.9845581,0.008627948351,679.9845581,0.00744738616,679.9845581,0.008170795627,679.9845581,0.007362968754,
678.9703369,0.008863390423,678.9703369,0.007847394794,678.9703369,0.008258562535,678.9703369,0.008090667427,
677.9558105,0.008833562955,677.9558105,0.00816889666,677.9558105,0.008808678016,677.9558105,0.007534533273,
676.940979,0.009515627287,676.940979,0.007686614525,676.940979,0.009074851871,676.940979,0.008142044768,
676.0708008,0.009083786048,676.0708008,0.009144428186,676.0708008,0.007145127747,676.0708008,0.007544963621,
675.0553589,0.00914405752,675.0553589,0.008024530485,675.0553589,0.007761897985,675.0553589,0.007604020648,
674.0396118,0.008817580529,674.0396118,0.008197727613,674.0396118,0.008095441386,674.0396118,0.00749679096,
673.0235596,0.008808070794,673.0235596,0.008968474343,673.0235596,0.008741612546,673.0235596,0.009062428959,
672.0071411,0.009878881276,672.0071411,0.008499611169,672.0071411,0.008800304495,672.0071411,0.009098800831,
670.9904175,0.008939907886,670.9904175,0.008244342171,670.9904175,0.008992047049,670.9904175,0.007867875509,
669.9733887,0.01084873825,669.9733887,0.008955208585,669.9733887,0.008949500509,669.9733887,0.007790386211,
668.9560547,0.009981774725,668.9560547,0.009483929724,668.9560547,0.009280466475,668.9560547,0.007913347334,
667.9383545,0.009098218754,667.9383545,0.008557821624,667.9383545,0.008627631702,667.9383545,0.008093146607,
667.0658569,0.009502344765,667.0658569,0.008914436214,667.0658569,0.008846666664,667.0658569,0.008388649672,
666.0476074,0.009401972406,666.0476074,0.01035000477,666.0476074,0.008620528504,666.0476074,0.008460386656,
665.0289917,0.010322541,665.0289917,0.008920064196,665.0289917,0.008907830343,665.0289917,0.009500439279,
664.0101318,0.01019274816,664.0101318,0.009418690577,664.0101318,0.009269941598,664.0101318,0.008216800168,
662.9909668,0.01062049437,662.9909668,0.009970358573,662.9909668,0.009517399594,662.9909668,0.009022491984,
661.9714355,0.01038264018,661.9714355,0.009530683048,661.9714355,0.008601042442,661.9714355,0.008602573536,
660.9515991,0.01072412077,660.9515991,0.009370918386,660.9515991,0.009325505234,660.9515991,0.008444945328,
659.9314575,0.01066320483,659.9314575,0.01048514899,659.9314575,0.009338279255,659.9314575,0.00895856414,
659.0568237,0.01052731555,659.0568237,0.01054078899,659.0568237,0.00960313715,659.0568237,0.008694363758,
658.0361328,0.0110026747,658.0361328,0.009784538299,658.0361328,0.008683667518,658.0361328,0.009071679786,
657.0150757,0.01072873734,657.0150757,0.01008641347,657.0150757,0.009818798862,657.0150757,0.00787341129,
655.9937744,0.01056553423,655.9937744,0.009867123328,655.9937744,0.009468214586,655.9937744,0.009357534349,
654.9721069,0.01053856034,654.9721069,0.009824173525,654.9721069,0.008437871933,654.9721069,0.008840907365,
653.9501953,0.01027684286,653.9501953,0.009409008548,653.9501953,0.008659821004,653.9501953,0.008310804144,
652.9279175,0.01010853704,652.9279175,0.01014860068,652.9279175,0.00947437901,652.9279175,0.009184244089,
652.0514526,0.01092141215,652.0514526,0.01072579157,652.0514526,0.008765701205,652.0514526,0.009571089409,
651.0286255,0.01152693201,651.0286255,0.01051896159,651.0286255,0.009534467012,651.0286255,0.009576673619,
650.0054932,0.01015058719,650.0054932,0.01005422417,650.0054932,0.008586045355,650.0054932,0.00995473098,
648.9820557,0.01231115032,648.9820557,0.01018023957,648.9820557,0.00982533861,648.9820557,0.01010660268,
647.958313,0.01116312016,647.958313,0.01016982552,647.958313,0.009782234207,647.958313,0.009605386294,
646.9342041,0.0116380332,646.9342041,0.01085380744,646.9342041,0.009471468627,646.9342041,0.009944931604,
646.0562134,0.01139324438,646.0562134,0.01029714663,646.0562134,0.009927822277,646.0562134,0.009488454089,
645.0316162,0.01162338257,645.0316162,0.01100779884,645.0316162,0.009558890015,645.0316162,0.009539202787,
644.0066528,0.01110214274,644.0066528,0.01071732771,644.0066528,0.009843477048,644.0066528,0.01034356281,
642.9814453,0.01111842226,642.9814453,0.009568179026,642.9814453,0.01009221654,642.9814453,0.009844165295,
641.9558716,0.01184901502,641.9558716,0.01101908367,641.9558716,0.01035443228,641.9558716,0.009929304942,
640.9300537,0.01246201061,640.9300537,0.01008275803,640.9300537,0.01008474454,640.9300537,0.009452949278,
640.0505371,0.01117828675,640.0505371,0.01023424976,640.0505371,0.01013609301,640.0505371,0.009581278078,
639.0241089,0.01156619564,639.0241089,0.01070642285,639.0241089,0.01068013068,639.0241089,0.009771379642,
637.9974365,0.01127803419,637.9974365,0.0096673714,637.9974365,0.01046690438,637.9974365,0.009885316715,
636.9703979,0.01138569694,636.9703979,0.01003345475,636.9703979,0.01013672911,636.9703979,0.009786814451,
635.9431152,0.01177823357,635.9431152,0.01081458107,635.9431152,0.009900358506,635.9431152,0.01054219436,
635.0623169,0.01105474308,635.0623169,0.009937621653,635.0623169,0.009403480217,635.0623169,0.009796028957,
634.0344849,0.01027944032,634.0344849,0.00994297117,634.0344849,0.009704085067,634.0344849,0.009283402003,
633.0062866,0.0120710386,633.0062866,0.010644475,633.0062866,0.0110110119,633.0062866,0.009826927446,
631.9778442,0.01107298583,631.9778442,0.01029226929,631.9778442,0.009986886755,631.9778442,0.009262642823,
630.9490967,0.01145423576,630.9490967,0.01035302691,630.9490967,0.01030920818,630.9490967,0.01014073007,
630.0670166,0.0123715261,630.0670166,0.01070992555,630.0670166,0.01174395066,630.0670166,0.0104515776,
629.0377197,0.01102577429,629.0377197,0.01018932927,629.0377197,0.01035734825,629.0377197,0.009697441012,
628.0081177,0.01191286463,628.0081177,0.0106670782,628.0081177,0.01033155434,628.0081177,0.009783028625,
626.9782104,0.01147592347,626.9782104,0.011275989,626.9782104,0.01110846363,626.9782104,0.0101762386,
625.947998,0.01067312714,625.947998,0.01043731254,625.947998,0.01048849057,625.947998,0.009378774092,
625.0647583,0.01204852294,625.0647583,0.01075596176,625.0647583,0.01051326003,625.0647583,0.01050127298,
624.0339966,0.01161535364,624.0339966,0.01007520687,624.0339966,0.01064046938,624.0339966,0.01097070985,
623.0029297,0.01073958911,623.0029297,0.009977324866,623.0029297,0.009154632688,623.0029297,0.009648659267,
621.9716187,0.01206105761,621.9716187,0.01103673968,621.9716187,0.01049726829,621.9716187,0.01009192504,
620.9400024,0.01101579051,620.9400024,0.01111754589,620.9400024,0.01121284347,620.9400024,0.01025831606,
620.055481,0.01142460294,620.055481,0.0115341628,620.055481,0.01030713972,620.055481,0.009474087507,
619.0233154,0.01135644037,619.0233154,0.01058980357,619.0233154,0.01068763901,619.0233154,0.009639316238,
617.9908447,0.01104818471,617.9908447,0.01034920942,617.9908447,0.009993058629,617.9908447,0.01026491541,
616.9580688,0.01096648816,616.9580688,0.01040589251,616.9580688,0.01008824166,616.9580688,0.01085800026,
616.0726318,0.0108687235,616.0726318,0.01063869242,616.0726318,0.010587072,616.0726318,0.01046557911,
615.0393066,0.01300697122,615.0393066,0.01213106047,615.0393066,0.01228116639,615.0393066,0.0113350777,
614.0057373,0.01268429495,614.0057373,0.01198449358,614.0057373,0.01199628226,614.0057373,0.01173089258,
612.9718628,0.01245313976,612.9718628,0.01102962438,612.9718628,0.01161835808,612.9718628,0.01070326567,
611.9376831,0.012406311,611.9376831,0.01170225069,611.9376831,0.01180493832,611.9376831,0.01127771568,
611.0510254,0.01259949245,611.0510254,0.01112668216,611.0510254,0.01105060056,611.0510254,0.01115148794,
610.0162964,0.01145136543,610.0162964,0.01092040353,610.0162964,0.01052506175,610.0162964,0.01034608204,
608.9813232,0.01161439624,608.9813232,0.0112216631,608.9813232,0.01115504652,608.9813232,0.01088759489,
607.9459839,0.01314291731,607.9459839,0.01277329866,607.9459839,0.0114393793,607.9459839,0.0118961297,
607.0584106,0.0124718938,607.0584106,0.01213883422,607.0584106,0.01168230642,607.0584106,0.0118713351,
606.022583,0.01264594216,606.022583,0.01230215002,606.022583,0.01244235132,606.022583,0.01185029186,
604.9864502,0.01300577074,604.9864502,0.01232220232,604.9864502,0.01248950325,604.9864502,0.01194630936,
603.9500732,0.01335684769,603.9500732,0.01179714501,603.9500732,0.01237442903,603.9500732,0.01208700798,
603.0615234,0.01297893841,603.0615234,0.01220488269,603.0615234,0.01183760352,603.0615234,0.0120903356,
602.0245972,0.01308246236,602.0245972,0.01191797294,602.0245972,0.01261668094,602.0245972,0.01302999072,
600.9874268,0.01289383881,600.9874268,0.01284624264,600.9874268,0.01240434032,600.9874268,0.01256586425,
599.9499512,0.01361890603,599.9499512,0.01262528822,599.9499512,0.01247876696,599.9499512,0.01355170738,
599.0604248,0.01360151824,599.0604248,0.01308465004,599.0604248,0.01278657466,599.0604248,0.01305466518,
598.0223999,0.01320484933,598.0223999,0.01270865649,598.0223999,0.01272033155,598.0223999,0.01289290562,
596.9841309,0.01421894692,596.9841309,0.01352126338,596.9841309,0.01372327749,596.9841309,0.01431883313,
595.9455566,0.01436803583,595.9455566,0.01300494373,595.9455566,0.01367770042,595.9455566,0.01465003565,
595.0551147,0.01472294796,595.0551147,0.01413074229,595.0551147,0.01477857027,595.0551147,0.01492284238,
594.0159912,0.01510020718,594.0159912,0.01378823072,594.0159912,0.01511082146,594.0159912,0.01485016476,
592.9766235,0.01492059231,592.9766235,0.01405520272,592.9766235,0.01564470679,592.9766235,0.01527456194,
591.9369507,0.01647186466,591.9369507,0.01502072066,591.9369507,0.01652765833,591.9369507,0.01703588292,
591.0455933,0.01611667685,591.0455933,0.01492745057,591.0455933,0.01622648723,591.0455933,0.01762201078,
590.0054321,0.01571837626,590.0054321,0.01499847975,590.0054321,0.01699528657,590.0054321,0.01724050753,
588.9649658,0.01677202433,588.9649658,0.01572098024,588.9649658,0.01719248667,588.9649658,0.01736711711,
588.072937,0.01783066057,588.072937,0.01714255847,588.072937,0.01839328744,588.072937,0.01877037063,
587.0319824,0.01842726208,587.0319824,0.01750705019,587.0319824,0.01872034185,587.0319824,0.01892981865,
585.9907227,0.01936566643,585.9907227,0.01811292209,585.9907227,0.01916301437,585.9907227,0.01908353716,
584.9492188,0.02003089897,584.9492188,0.01865424216,584.9492188,0.01951003633,584.9492188,0.02015656233,
584.0562134,0.02100163139,584.0562134,0.01989947259,584.0562134,0.02064570598,584.0562134,0.02117133141,
583.0142212,0.02163446695,583.0142212,0.02083970979,583.0142212,0.02174919099,583.0142212,0.02104849927,
581.9718628,0.02253964543,581.9718628,0.02142090909,581.9718628,0.02161939442,581.9718628,0.02157183737,
580.9293213,0.02329545841,580.9293213,0.02220945619,580.9293213,0.02223302238,580.9293213,0.02210572176,
580.0354004,0.0238623973,580.0354004,0.02280321345,580.0354004,0.02189685963,580.0354004,0.02185161412,
578.9923096,0.02510048449,578.9923096,0.02413300797,578.9923096,0.02289628051,578.9923096,0.02275367267,
577.9489746,0.02643329836,577.9489746,0.02490711771,577.9489746,0.0229777135,577.9489746,0.02265248261,
577.0544434,0.02688010596,577.0544434,0.02541405149,577.0544434,0.02304548584,577.0544434,0.02270263806,
576.0105591,0.02825445309,576.0105591,0.02728442661,576.0105591,0.02362428792,576.0105591,0.02406413481,
574.9663696,0.02860865183,574.9663696,0.02790492959,574.9663696,0.0234581884,574.9663696,0.02343201451,
574.071167,0.0301688686,574.071167,0.02858183347,574.071167,0.02445743419,574.071167,0.02480394393,
573.0265503,0.02984589152,573.0265503,0.02858470939,573.0265503,0.02344818972,573.0265503,0.0237252675,
571.9816284,0.03022414632,571.9816284,0.02878279053,571.9816284,0.02368538082,571.9816284,0.02347195894,
570.9364014,0.03056743182,570.9364014,0.02988986857,570.9364014,0.02415454574,570.9364014,0.0234522596,
570.0403442,0.03133463115,570.0403442,0.02998025157,570.0403442,0.02412241884,570.0403442,0.02439508028,
568.9946289,0.03112417646,568.9946289,0.02948810346,568.9946289,0.02447227575,568.9946289,0.02427018434,
567.9486694,0.03140124306,567.9486694,0.0299189873,567.9486694,0.02458367124,567.9486694,0.02468377911,
567.0519409,0.03184631467,567.0519409,0.03060981631,567.0519409,0.02503908239,567.0519409,0.02484067157,
566.0054321,0.03169784322,566.0054321,0.03013157845,566.0054321,0.02401196212,566.0054321,0.024345221,
564.9587402,0.03089047596,564.9587402,0.02960855328,564.9587402,0.02486599982,564.9587402,0.02489955164,
564.0613403,0.03164513409,564.0613403,0.03051269427,564.0613403,0.02538295649,564.0613403,0.0249742046,
563.0140991,0.0296308063,563.0140991,0.02919514291,563.0140991,0.02474209107,563.0140991,0.02530181222,
561.9666138,0.03037597612,561.9666138,0.02941497043,561.9666138,0.02505251952,561.9666138,0.02498385683,
561.0685425,0.02947932109,561.0685425,0.02826798894,561.0685425,0.02452108264,561.0685425,0.02481115237,
560.0205688,0.02990265191,560.0205688,0.02819599956,560.0205688,0.02593094669,560.0205688,0.02529942431,
558.97229,0.02863185108,558.97229,0.02751293965,558.97229,0.02591792122,558.97229,0.02554273605,
558.0736084,0.02910257131,558.0736084,0.02790636569,558.0736084,0.02654814348,558.0736084,0.02625135519,
557.0249023,0.02870532311,557.0249023,0.0275130216,557.0249023,0.02576544695,557.0249023,0.02639682218,
555.9758911,0.02843179367,555.9758911,0.02701889537,555.9758911,0.02652885392,555.9758911,0.02669007517,
554.9266357,0.02890273929,554.9266357,0.02691312693,554.9266357,0.02767358907,554.9266357,0.0275901407,
554.0270386,0.02857495099,554.0270386,0.02658014745,554.0270386,0.02771290578,554.0270386,0.02806912176,
552.9772949,0.0283286348,552.9772949,0.02726179548,552.9772949,0.02873350307,552.9772949,0.028329188,
551.9273071,0.02829130739,551.9273071,0.02672811784,551.9273071,0.02833161876,551.9273071,0.02826821059,
551.0270386,0.02873969823,551.0270386,0.02725225873,551.0270386,0.02878052182,551.0270386,0.02866431326,
549.9765625,0.02824456245,549.9765625,0.02729087509,549.9765625,0.02929200046,549.9765625,0.02949137427,
548.9258423,0.02944350243,548.9258423,0.02842444181,548.9258423,0.0305714868,548.9258423,0.03043141775,
548.0249634,0.0291597899,548.0249634,0.0277061183,548.0249634,0.03062484413,548.0249634,0.03068551421,
546.9737549,0.03017722256,546.9737549,0.02874431759,546.9737549,0.03134776279,546.9737549,0.03144293278,
546.0724487,0.029415939,546.0724487,0.02829188667,546.0724487,0.03092744388,546.0724487,0.03086126409,
545.020752,0.03029303253,545.020752,0.02898159809,545.020752,0.03161044419,545.020752,0.03127189726,
543.968811,0.03117609955,543.968811,0.02951932885,543.968811,0.03175907955,543.968811,0.03213978931,
543.0668945,0.03121156245,543.0668945,0.02970685996,543.0668945,0.03154385462,543.0668945,0.0321799852,
542.0144653,0.03115693666,542.0144653,0.02946893312,542.0144653,0.03159240261,542.0144653,0.03148593009,
540.961731,0.03214449808,540.961731,0.03011393175,540.961731,0.03188665211,540.961731,0.03191088885,
540.0592041,0.03235162795,540.0592041,0.03046407178,540.0592041,0.03173849732,540.0592041,0.03175117075,
539.0060425,0.03229468316,539.0060425,0.03027307615,539.0060425,0.03139317408,539.0060425,0.03168517351,
537.9526367,0.03235374764,537.9526367,0.03055734932,537.9526367,0.03217309713,537.9526367,0.03196616471,
537.0494995,0.03187951818,537.0494995,0.0311336033,537.0494995,0.03155468032,537.0494995,0.03135630488,
535.9956055,0.03241959587,535.9956055,0.03083736449,535.9956055,0.03144498914,535.9956055,0.03151003271,
534.9414063,0.03226964548,534.9414063,0.03071673959,534.9414063,0.0310047809,534.9414063,0.03076511435,
534.0376587,0.03204173595,534.0376587,0.03055107407,534.0376587,0.03063295409,534.0376587,0.03024124168,
532.9830322,0.03238609806,532.9830322,0.03005919419,532.9830322,0.03059140034,532.9830322,0.03038902394,
531.9281616,0.03283176199,531.9281616,0.03124452382,531.9281616,0.03073413298,531.9281616,0.03064203821,
531.0238037,0.03211804479,531.0238037,0.030367231,531.0238037,0.02952207066,531.0238037,0.02933509089,
529.9684448,0.03193409741,529.9684448,0.03034727089,529.9684448,0.02970760874,529.9684448,0.0295697581,
529.0636597,0.03100917302,529.0636597,0.029813895,529.0636597,0.02861658856,529.0636597,0.02886234783,
528.0078735,0.03169578314,528.0078735,0.02962318622,528.0078735,0.02881966345,528.0078735,0.02852184512,
526.9517822,0.03091048822,526.9517822,0.02955498919,526.9517822,0.02808210067,526.9517822,0.028100105,
526.0463867,0.03124930896,526.0463867,0.02968385443,526.0463867,0.02844287641,526.0463867,0.02822492085,
524.9898682,0.03063078783,524.9898682,0.02911156788,524.9898682,0.02803449519,524.9898682,0.02751158923,
523.9331055,0.03013032861,523.9331055,0.02865413763,523.9331055,0.02749385498,523.9331055,0.02685675398,
523.0271606,0.03003816865,523.0271606,0.02818716131,523.0271606,0.0272738412,523.0271606,0.0265831463,
521.9699097,0.02954980731,521.9699097,0.02790473774,521.9699097,0.02686790749,521.9699097,0.0264973212,
521.0635376,0.02931509539,521.0635376,0.02748263068,521.0635376,0.02659668773,521.0635376,0.02593897097,
520.0058594,0.02934979647,520.0058594,0.02740498073,520.0058594,0.0266897995,520.0058594,0.02562128939,
518.947937,0.02867921814,518.947937,0.02714403532,518.947937,0.02567533217,518.947937,0.0257087294,
518.0409546,0.02869066596,518.0409546,0.02696366608,518.0409546,0.02562568337,518.0409546,0.02494412847,
516.9825439,0.02857837826,516.9825439,0.02662462182,516.9825439,0.02585247532,516.9825439,0.02509137988,
516.0751953,0.02790018171,516.0751953,0.02614769712,516.0751953,0.02487353794,516.0751953,0.02448994108,
515.0163574,0.02801671252,515.0163574,0.02710986696,515.0163574,0.02552266791,515.0163574,0.02504835092,
513.9572754,0.02788875438,513.9572754,0.02566423826,513.9572754,0.0250715781,513.9572754,0.0246924106,
513.0492554,0.02733159065,513.0492554,0.02573896758,513.0492554,0.02449046075,513.0492554,0.02439316362,
511.9897461,0.02765758708,511.9897461,0.02579228394,511.9897461,0.02531168982,511.9897461,0.02433084883,
510.9299927,0.02697482146,510.9299927,0.02511913516,510.9299927,0.02456849627,510.9299927,0.0239155367,
510.0214233,0.02732373402,510.0214233,0.02478064783,510.0214233,0.02476656251,510.0214233,0.02369153127,
508.9612122,0.02642009407,508.9612122,0.02484609932,508.9612122,0.0241940096,508.9612122,0.0235736426,
508.0522461,0.02644532174,508.0522461,0.02443842776,508.0522461,0.0240284577,508.0522461,0.02341269888,
506.9915771,0.02604631707,506.9915771,0.02370689623,506.9915771,0.02377989516,506.9915771,0.02313128673,
505.9306946,0.02615242638,505.9306946,0.0246980004,505.9306946,0.02442550287,505.9306946,0.02384932525,
505.0211487,0.02652051672,505.0211487,0.02546875365,505.0211487,0.02425438911,505.0211487,0.02393172868,
503.9598083,0.02662899718,503.9598083,0.02479057014,503.9598083,0.02478566393,503.9598083,0.02377103642,
503.0498962,0.02650331892,503.0498962,0.02448503859,503.0498962,0.02467202581,503.0498962,0.02345154993,
501.9880981,0.0259449333,501.9880981,0.02442323044,501.9880981,0.02444908023,501.9880981,0.02306194603,
500.9260864,0.02611649409,500.9260864,0.02428822406,500.9260864,0.02407699451,500.9260864,0.02416349389,
500.0155945,0.02584252879,500.0155945,0.02353814244,500.0155945,0.0238176845,500.0155945,0.02261310257,
498.953125,0.02603768744,498.953125,0.02376515791,498.953125,0.02424352244,498.953125,0.02355563268,
498.0422363,0.02598027326,498.0422363,0.02431688644,498.0422363,0.02414173819,498.0422363,0.02349993959,
496.9793396,0.02551369183,496.9793396,0.02344447374,496.9793396,0.02389707603,496.9793396,0.02313472703,
496.0681152,0.02569977567,496.0681152,0.02351611666,496.0681152,0.02435516007,496.0681152,0.02406528406,
495.0047607,0.02569595724,495.0047607,0.02344870754,495.0047607,0.02451943792,495.0047607,0.02363828197,
493.9411926,0.02591105178,493.9411926,0.02349810861,493.9411926,0.0248017516,493.9411926,0.02397010662,
493.0293884,0.02602355927,493.0293884,0.02376696281,493.0293884,0.02439401299,493.0293884,0.02421459183,
491.9653625,0.02538221516,491.9653625,0.02379017696,491.9653625,0.024863258,491.9653625,0.02389466949,
491.0531921,0.02615720965,491.0531921,0.02410422079,491.0531921,0.02545777522,491.0531921,0.0241522193,
489.9887695,0.02600275353,489.9887695,0.02392243035,489.9887695,0.02511044033,489.9887695,0.0245100446,
488.9241028,0.02641431801,488.9241028,0.02442676201,488.9241028,0.02533745579,488.9241028,0.02514263988,
488.011322,0.02620999888,488.011322,0.02427743748,488.011322,0.026029028,488.011322,0.02485552803,
486.946228,0.02663997933,486.946228,0.02445417456,486.946228,0.0259849187,486.946228,0.02532864735,
486.0331116,0.02653688751,486.0331116,0.02447361872,486.0331116,0.02683538571,486.0331116,0.02581112832,
484.9675903,0.02643541805,484.9675903,0.02424445376,484.9675903,0.02666755952,484.9675903,0.02599846758,
484.0541077,0.02601687983,484.0541077,0.02384527773,484.0541077,0.0261683166,484.0541077,0.02550600469,
482.9881592,0.02696479671,482.9881592,0.0243308749,482.9881592,0.0272187721,482.9881592,0.02618701383,
482.0743103,0.0263981428,482.0743103,0.02467599697,482.0743103,0.02747979201,482.0743103,0.02628424577,
481.0079651,0.02662063017,481.0079651,0.02405280806,481.0079651,0.0278004352,481.0079651,0.02673681825,
479.9413757,0.02721786313,479.9413757,0.02473811619,479.9413757,0.02842283808,479.9413757,0.02781944908,
479.026947,0.02629125863,479.026947,0.02466994338,479.026947,0.02868610248,479.026947,0.02782557718,
477.9599304,0.02699944749,477.9599304,0.02493160032,477.9599304,0.02952448279,477.9599304,0.02822398208,
477.045166,0.02737559006,477.045166,0.02516175807,477.045166,0.02981713787,477.045166,0.02886776999,
475.9777527,0.02738027833,475.9777527,0.02517928742,475.9777527,0.03013188206,475.9777527,0.02964835055,
475.0626221,0.02760277316,475.0626221,0.02550611459,475.0626221,0.03036736883,475.0626221,0.02966633625,
473.9947815,0.02841299959,473.9947815,0.02591533959,473.9947815,0.03154760972,473.9947815,0.03041209467,
472.9266968,0.02792756632,472.9266968,0.02599821985,472.9266968,0.03197524697,472.9266968,0.03089431114,
472.0110168,0.02873071097,472.0110168,0.02625190653,472.0110168,0.03300698474,472.0110168,0.03177620843,
470.9425354,0.02959868684,470.9425354,0.0271912124,470.9425354,0.03401976451,470.9425354,0.03327740356,
470.0265198,0.03021415696,470.0265198,0.02806191333,470.0265198,0.03528081998,470.0265198,0.03449681401,
468.9576111,0.03000502102,468.9576111,0.0277650021,468.9576111,0.0351241231,468.9576111,0.03425426036,
468.0412292,0.03041631356,468.0412292,0.02849243395,468.0412292,0.03597481176,468.0412292,0.03508831188,
466.9719238,0.03124090843,466.9719238,0.02915785275,466.9719238,0.03642836586,466.9719238,0.03575225547,
466.0551758,0.03215057403,466.0551758,0.02980488352,466.0551758,0.03766657412,466.0551758,0.036952544,
464.9854736,0.031962879,464.9854736,0.02991651744,464.9854736,0.03863378242,464.9854736,0.03762216866,
464.0683899,0.03291599825,464.0683899,0.03116174787,464.0683899,0.03944301605,464.0683899,0.03809479997,
462.9982605,0.0341216214,462.9982605,0.03182461485,462.9982605,0.04077137634,462.9982605,0.0396113731,
461.9279175,0.03468036652,461.9279175,0.03203362599,461.9279175,0.04106593505,461.9279175,0.04054362327,
461.0102844,0.03515423834,461.0102844,0.03276534751,461.0102844,0.04233920202,461.0102844,0.04112327099,
459.9395447,0.03646273911,459.9395447,0.03378337994,459.9395447,0.04353384674,459.9395447,0.04302187636,
459.0215759,0.03759823367,459.0215759,0.03534102067,459.0215759,0.04494836926,459.0215759,0.04350477457,
457.9504089,0.03815186024,457.9504089,0.03580729291,457.9504089,0.0462865606,457.9504089,0.04558530822,
457.0321045,0.03923570737,457.0321045,0.03732810169,457.0321045,0.04755540192,457.0321045,0.04695635289,
455.9605713,0.04069481045,455.9605713,0.0383291617,455.9605713,0.04967791215,455.9605713,0.04874116182,
455.0419006,0.04201908037,455.0419006,0.0396588482,455.0419006,0.05148402229,455.0419006,0.05095281824,
453.9699707,0.04340029135,453.9699707,0.04074120894,453.9699707,0.05369165167,453.9699707,0.05262136459,
453.0509644,0.04465977103,453.0509644,0.04169839621,453.0509644,0.05537395179,453.0509644,0.05417178571,
451.9786072,0.04636054486,451.9786072,0.04350002483,451.9786072,0.0584413819,451.9786072,0.05748387426,
451.0592957,0.04757374525,451.0592957,0.04492663965,451.0592957,0.06027284265,451.0592957,0.05900125206,
449.9865417,0.04950906336,449.9865417,0.04686874151,449.9865417,0.06403691322,449.9865417,0.06305739284,
449.066864,0.05159696937,449.066864,0.04891220853,449.066864,0.06692480296,449.066864,0.06565327197,
447.9937134,0.0529904291,447.9937134,0.04973738641,447.9937134,0.07006157935,447.9937134,0.06913298368,
447.0737,0.05524716899,447.0737,0.05263080448,447.0737,0.07385570556,447.0737,0.07247278094,
446.0001831,0.05724184215,446.0001831,0.05505994707,446.0001831,0.07818666846,446.0001831,0.07736565918,
444.9264221,0.0600313358,444.9264221,0.05811719224,444.9264221,0.082885921,444.9264221,0.08249501139,
444.0059204,0.06244935095,444.0059204,0.06024602056,444.0059204,0.08807119727,444.0059204,0.08704385161,
442.9317627,0.06626934558,442.9317627,0.06359115243,442.9317627,0.09460567683,442.9317627,0.09343712032,
442.0109253,0.06904041767,442.0109253,0.06733258069,442.0109253,0.09906572849,442.0109253,0.09879568219,
440.9364014,0.07218499482,440.9364014,0.0701360479,440.9364014,0.1055841148,440.9364014,0.1054614633,
440.0151978,0.07650973648,440.0151978,0.07419788837,440.0151978,0.1117966622,440.0151978,0.11123202,
438.9403076,0.08165957779,438.9403076,0.07924034446,438.9403076,0.1202023998,438.9403076,0.1190274134,
438.0187683,0.08649926633,438.0187683,0.08380267024,438.0187683,0.1277780533,438.0187683,0.1270390451,
436.9434814,0.09275326133,436.9434814,0.09011364728,436.9434814,0.1363508403,436.9434814,0.1358223855,
436.021637,0.09824249148,436.021637,0.09542758763,436.021637,0.1439779997,436.021637,0.1448017359,
434.9459534,0.1052539721,434.9459534,0.1028251201,434.9459534,0.1532534957,434.9459534,0.1526453644,
434.0237732,0.1129172668,434.0237732,0.1101038381,434.0237732,0.1624498069,434.0237732,0.1615971625,
432.9477234,0.12322478,432.9477234,0.1202004552,432.9477234,0.1725948006,432.9477234,0.172154218,
432.025238,0.1304048002,432.025238,0.1283647418,432.025238,0.181979239,432.025238,0.180975765,
430.9487915,0.1415922493,430.9487915,0.1386825889,430.9487915,0.1917864829,430.9487915,0.1910212487,
430.0259705,0.150680989,430.0259705,0.1468000859,430.0259705,0.2002336532,430.0259705,0.1984325647,
428.9491577,0.1613054723,428.9491577,0.1586744636,428.9491577,0.2093828619,428.9491577,0.2081688941,
428.026001,0.1721229851,428.026001,0.1697612256,428.026001,0.2168976367,428.026001,0.2152102292,
426.948822,0.1837561131,426.948822,0.1808731705,426.948822,0.222720325,426.948822,0.2220683843,
426.0253296,0.1940192878,426.0253296,0.1891896278,426.0253296,0.2266807258,426.0253296,0.226210475,
424.9477844,0.2041618973,424.9477844,0.199863717,424.9477844,0.2296082824,424.9477844,0.2287969738,
424.0239868,0.2119573504,424.0239868,0.2085737139,424.0239868,0.2302183211,424.0239868,0.2295135558,
422.9460449,0.2226403058,422.9460449,0.2181628495,422.9460449,0.2293452621,422.9460449,0.2283347249,
422.0219421,0.2298809737,422.0219421,0.2258345485,422.0219421,0.2275395691,422.0219421,0.2266739607,
420.943634,0.235092923,420.943634,0.231500864,420.943634,0.2230041325,420.943634,0.2217252702,
420.0192261,0.2393209934,420.0192261,0.2353113741,420.0192261,0.2184516191,420.0192261,0.2171935886,
418.9405212,0.241824314,418.9405212,0.2385642678,418.9405212,0.2119527161,418.9405212,0.2109135538,
418.0158081,0.242335856,418.0158081,0.2377859801,418.0158081,0.2050591409,418.0158081,0.2030958235,
416.9367371,0.2414075136,416.9367371,0.2374753058,416.9367371,0.1971132606,416.9367371,0.1960330456,
416.0116882,0.2392282635,416.0116882,0.2355934232,416.0116882,0.1905275136,416.0116882,0.1895360798,
414.9322815,0.2348541319,414.9322815,0.2314854264,414.9322815,0.1818786114,414.9322815,0.1806566268,
414.0069275,0.230755344,414.0069275,0.2270574719,414.0069275,0.1754004806,414.0069275,0.173650682,
412.9271545,0.2241775841,412.9271545,0.22090213,412.9271545,0.1673092395,412.9271545,0.1663317233,
412.0014648,0.2176035792,412.0014648,0.2142235339,412.0014648,0.1599437147,412.0014648,0.1587833315,
411.0756531,0.2120288312,411.0756531,0.2088562101,411.0756531,0.1541172564,411.0756531,0.1523066461,
409.9953613,0.2034923732,409.9953613,0.1998604387,409.9953613,0.1466646791,409.9953613,0.1462225169,
409.0692444,0.1983782798,409.0692444,0.1953125,409.0692444,0.1424312294,409.0692444,0.1409182101,
407.9885864,0.190080449,407.9885864,0.1869698763,407.9885864,0.1352258325,407.9885864,0.1344150305,
407.0621338,0.1838849336,407.0621338,0.180983305,407.0621338,0.1308274716,407.0621338,0.1298287958,
405.9811096,0.1772861481,405.9811096,0.1738823801,405.9811096,0.125528574,405.9811096,0.1240091845,
405.0543823,0.1714121401,405.0543823,0.1687228233,405.0543823,0.1216332465,405.0543823,0.120331265,
403.9730225,0.1665181369,403.9730225,0.16379942,403.9730225,0.1176025271,403.9730225,0.1168697476,
403.0459595,0.1612307131,403.0459595,0.1584687531,403.0459595,0.1135770977,403.0459595,0.1122735962,
401.9642334,0.1561709046,401.9642334,0.1531976163,401.9642334,0.1104195639,401.9642334,0.108670488,
401.0368958,0.152362749,401.0368958,0.1494497359,401.0368958,0.1069549471,401.0368958,0.1062531546,
399.9548035,0.1469259709,399.9548035,0.1447886974,399.9548035,0.1030555144,399.9548035,0.1015877575,
399.0271606,0.1443863362,399.0271606,0.1411672533,399.0271606,0.1004023701,399.0271606,0.09944775701,
397.9447327,0.1407108903,397.9447327,0.1375703961,397.9447327,0.09747031331,397.9447327,0.09669940919,
397.0167847,0.1374266595,397.0167847,0.1346770674,397.0167847,0.09502652287,397.0167847,0.09436901659,
395.934021,0.1334944516,395.934021,0.1304225177,395.934021,0.09275899827,395.934021,0.09172374755,
395.0057678,0.1302796155,395.0057678,0.1278312802,395.0057678,0.09028531611,395.0057678,0.08937387168,
393.9226379,0.1269709021,393.9226379,0.1248431057,393.9226379,0.08817175031,393.9226379,0.08667051792,
392.9941101,0.124632284,392.9941101,0.1222414225,392.9941101,0.08657584339,392.9941101,0.08523282409,
392.0654297,0.1217707321,392.0654297,0.1192123666,392.0654297,0.0848800838,392.0654297,0.08363825083,
390.9818115,0.1186893135,390.9818115,0.1161388084,390.9818115,0.08299307525,390.9818115,0.08170759678,
390.0528259,0.1166300848,390.0528259,0.1125541702,390.0528259,0.08164861053,390.0528259,0.08012887836,
388.9688721,0.1134437025,388.9688721,0.1104301512,388.9688721,0.07984182239,388.9688721,0.07850603014,
388.0396118,0.1108239517,388.0396118,0.1075395793,388.0396118,0.07944387943,388.0396118,0.07780495286,
386.9552917,0.1085599884,386.9552917,0.1058882102,386.9552917,0.07825729996,386.9552917,0.07689674199,
386.0257263,0.1058394909,386.0257263,0.1032133028,386.0257263,0.0774987191,386.0257263,0.07609475404,
384.9410706,0.1041380391,384.9410706,0.101237826,384.9410706,0.076849401,384.9410706,0.07613836974,
384.0112305,0.1018095687,384.0112305,0.09847426414,384.0112305,0.07665195316,384.0112305,0.07539336383,
382.926239,0.1002341285,382.926239,0.09687567502,382.926239,0.07602169365,382.926239,0.07523040473,
381.9961243,0.09901448339,381.9961243,0.09449059516,381.9961243,0.07673330605,381.9961243,0.07530976832,
381.0658569,0.09647268802,381.0658569,0.09334551543,381.0658569,0.0769816339,381.0658569,0.07552089542,
379.9803772,0.09522084147,379.9803772,0.09287009388,379.9803772,0.07765779644,379.9803772,0.07688394934,
379.0498352,0.09509976208,379.0498352,0.09163378179,379.0498352,0.07853829116,379.0498352,0.07792170346,
377.9640198,0.09306165576,377.9640198,0.09135966003,377.9640198,0.07926180959,377.9640198,0.07860451937,
377.0331726,0.09276069701,377.0331726,0.08998331428,377.0331726,0.08076675236,377.0331726,0.07827562094,
375.9470215,0.09176403284,375.9470215,0.08893279731,375.9470215,0.08102625608,375.9470215,0.07958312333,
375.0159302,0.09194266051,375.0159302,0.08879834414,375.0159302,0.08239279687,375.0159302,0.08245281875,
373.9294434,0.09137237817,373.9294434,0.08829709888,373.9294434,0.08335422724,373.9294434,0.08273731917,
372.9980469,0.09165961295,372.9980469,0.08819226921,372.9980469,0.08531728387,372.9980469,0.08346024901,
372.0665283,0.09191476554,372.0665283,0.08910892159,372.0665283,0.08656188101,372.0665283,0.08469647914,
370.9795532,0.0918777287,370.9795532,0.08834458888,370.9795532,0.08819565922,370.9795532,0.08674804866,
370.04776,0.09241549671,370.04776,0.08898794651,370.04776,0.08931816369,370.04776,0.08832891285,
368.9604797,0.09239763021,368.9604797,0.08884362876,368.9604797,0.09030205011,368.9604797,0.0893433094,
368.0284119,0.09170386195,368.0284119,0.08855371177,368.0284119,0.09143196046,368.0284119,0.08993504196,
366.9407959,0.09262473136,366.9407959,0.08892332762,366.9407959,0.09363351762,366.9407959,0.09172080457,
366.0084534,0.09224589914,366.0084534,0.08968614042,366.0084534,0.09432590753,366.0084534,0.09227387607,
365.0759583,0.09253621101,365.0759583,0.08950389177,365.0759583,0.09521751851,365.0759583,0.09375553578,
363.9878845,0.09332879633,363.9878845,0.08966020495,363.9878845,0.0960535109,363.9878845,0.09423411638,
363.0551147,0.0936184302,363.0551147,0.08997576684,363.0551147,0.09668097645,363.0551147,0.09494034946,
361.9667358,0.09298196435,361.9667358,0.08959163725,361.9667358,0.09620389342,361.9667358,0.09499717504,
361.0336914,0.09441716969,361.0336914,0.09015028179,361.0336914,0.09672761708,361.0336914,0.09515886009,
359.9450073,0.09434961528,359.9450073,0.09005812556,359.9450073,0.09653621167,359.9450073,0.09503673762,
359.0116882,0.09317979217,359.0116882,0.08977092803,359.0116882,0.09670969844,359.0116882,0.09498738497,
357.9226685,0.09291318804,357.9226685,0.09008552134,357.9226685,0.09659983963,357.9226685,0.09462888539,
356.9891052,0.0932816267,356.9891052,0.08910107613,356.9891052,0.09660769999,356.9891052,0.09469158947,
356.0553894,0.09198821336,356.0553894,0.08819322288,356.0553894,0.09583180398,356.0553894,0.09400286525,
354.9659119,0.09216251224,354.9659119,0.08852644265,354.9659119,0.09575408697,354.9659119,0.0939174369,
354.0319519,0.09112210572,354.0319519,0.08751727641,354.0319519,0.09412042052,354.0319519,0.09298920631,
352.9421692,0.08980447799,352.9421692,0.08632611483,352.9421692,0.09333335608,352.9421692,0.09185645729,
352.0079346,0.08915866911,352.0079346,0.08560108393,352.0079346,0.09276306629,352.0079346,0.09059046209,
351.0735779,0.08849680424,351.0735779,0.08535761386,351.0735779,0.09146576375,351.0735779,0.09007367492,
349.9833374,0.08668828011,349.9833374,0.083671242,349.9833374,0.08974590898,349.9833374,0.08857516944,
349.0487366,0.08654940128,349.0487366,0.08232933283,349.0487366,0.08884696662,349.0487366,0.08731204271,
347.9581909,0.08465728164,347.9581909,0.08106097579,347.9581909,0.08766308427,347.9581909,0.08597245812,
347.0233154,0.08366543055,347.0233154,0.08101636171,347.0233154,0.08715150505,347.0233154,0.08566464484,
345.9324646,0.08162168413,345.9324646,0.07886682451,345.9324646,0.08517500013,345.9324646,0.08364534378,
344.9973145,0.08079197258,344.9973145,0.07851310819,344.9973145,0.08494693786,344.9973145,0.08283842355,
344.0620422,0.08058509231,344.0620422,0.07646941394,344.0620422,0.0826805383,344.0620422,0.08106010407,
342.9707642,0.07942570001,342.9707642,0.07552167028,342.9707642,0.08147766441,342.9707642,0.07988942415,
342.0352478,0.07813494653,342.0352478,0.07486321032,342.0352478,0.08069658279,342.0352478,0.07932249457,
340.9436646,0.0766935274,340.9436646,0.0735751316,340.9436646,0.0796719864,340.9436646,0.07841231674,
340.0078735,0.07581161708,340.0078735,0.07286643237,340.0078735,0.07816726714,340.0078735,0.07727951556,
339.071991,0.07503086329,339.071991,0.07149265707,339.071991,0.07731863856,339.071991,0.07587872446,
337.97995,0.07269804925,337.97995,0.06964606047,337.97995,0.07524804026,337.97995,0.0733563602,
337.0438232,0.07294034213,337.0438232,0.07008853555,337.0438232,0.07450913638,337.0438232,0.07290840894,
335.9515076,0.07169537246,335.9515076,0.06873408705,335.9515076,0.07321156561,335.9515076,0.07138238102,
335.0151062,0.07092679292,335.0151062,0.06797078252,335.0151062,0.07199527323,335.0151062,0.0703677237,
333.9224854,0.06974997371,333.9224854,0.06667193025,333.9224854,0.07075700164,333.9224854,0.06831704825,
332.9858093,0.06908842921,332.9858093,0.06615550071,332.9858093,0.06912939996,332.9858093,0.06721102446,
332.0490417,0.06810091436,332.0490417,0.06466412544,332.0490417,0.06852146983,332.0490417,0.06644170731,
330.9560242,0.06730133295,330.9560242,0.06345041841,330.9560242,0.06701818109,330.9560242,0.06552893668,
330.0189819,0.06644628942,330.0189819,0.06235730276,330.0189819,0.06607725471,330.0189819,0.0644326508,
328.9256592,0.06560037285,328.9256592,0.06179416552,328.9256592,0.06526643783,328.9256592,0.06314980239,
327.9884033,0.06365264952,327.9884033,0.06047669798,327.9884033,0.06364698708,327.9884033,0.06184060499,
327.0510254,0.06340682507,327.0510254,0.05995141715,327.0510254,0.06370378286,327.0510254,0.06195684522,
325.9572754,0.0621621795,325.9572754,0.05896214023,325.9572754,0.0622198917,325.9572754,0.06062995642,
325.0196533,0.0616347082,325.0196533,0.057917431,325.0196533,0.06108803302,325.0196533,0.05915930122,
323.9255981,0.06141015142,323.9255981,0.05754548684,323.9255981,0.06075010076,323.9255981,0.05867208168,
322.9877319,0.06074381992,322.9877319,0.05768458918,322.9877319,0.0599742122,322.9877319,0.05817623436,
322.0497437,0.05957817286,322.0497437,0.05632993951,322.0497437,0.05886958167,322.0497437,0.05751655623,
320.9553223,0.05909134448,320.9553223,0.05630963296,320.9553223,0.05846391991,320.9553223,0.05766094103,
320.0170898,0.05839050561,320.0170898,0.0555344522,320.0170898,0.05883279815,320.0170898,0.05727734417,
318.9223633,0.05899211764,318.9223633,0.05561873689,318.9223633,0.05880828574,318.9223633,0.05745627359,
317.9838867,0.05884515867,317.9838867,0.05539791659,317.9838867,0.05833072588,317.9838867,0.05751646683,
317.0453186,0.0586851798,317.0453186,0.05502644926,317.0453186,0.05888292193,317.0453186,0.05700340122,
315.9501648,0.05730259791,315.9501648,0.05453219265,315.9501648,0.05879414827,315.9501648,0.05667155236,
315.0113831,0.05738988891,315.0113831,0.05527224764,315.0113831,0.05916799232,315.0113831,0.05713978782,
314.0724487,0.05781876668,314.0724487,0.05526504293,314.0724487,0.06058233604,314.0724487,0.05815060437,
312.9768982,0.05943383276,312.9768982,0.05561691523,312.9768982,0.06110802665,312.9768982,0.05899789929,
312.0377502,0.05954676121,312.0377502,0.05662955716,312.0377502,0.06186719984,312.0377502,0.06006287411,
310.941925,0.06065856293,310.941925,0.05661763996,310.941925,0.0628073886,310.941925,0.06083296612,
310.002533,0.06085526943,310.002533,0.05748768523,310.002533,0.06412064284,310.002533,0.06282734126,
309.0630493,0.06295893341,309.0630493,0.05958123133,309.0630493,0.06710799783,309.0630493,0.06512969732,
307.9668274,0.0651101768,307.9668274,0.06237541139,307.9668274,0.07011859119,307.9668274,0.06971143186,
307.0270996,0.06780783087,307.0270996,0.06490233541,307.0270996,0.0736907497,307.0270996,0.07147397846,
305.9306335,0.07016900182,305.9306335,0.06729190052,305.9306335,0.0765864253,305.9306335,0.07442355901,
304.9906616,0.07596745342,304.9906616,0.072850205,304.9906616,0.08190991729,304.9906616,0.08097627759,
304.0505981,0.0802693665,304.0505981,0.07816019654,304.0505981,0.087511383,304.0505981,0.08649402112,
302.9537354,0.08879993111,302.9537354,0.08712060004,302.9537354,0.09747546166,302.9537354,0.09544929117,
302.0134277,0.09589426219,302.0134277,0.09413540363,302.0134277,0.1039141715,302.0134277,0.1025366336,
301.0730286,0.1055885404,301.0730286,0.100980863,301.0730286,0.1130325049,301.0730286,0.1116635799,
299.975769,0.1182493642,299.975769,0.1156150773,299.975769,0.1281577051,299.975769,0.1273730695,
299.0351563,0.1277202517,299.0351563,0.1267774254,299.0351563,0.1380653381,299.0351563,0.139973551,
297.9376221,0.1425430328,297.9376221,0.1398753971,297.9376221,0.1550026685,297.9376221,0.1563809514,
296.9967651,0.1552036405,296.9967651,0.1510672271,296.9967651,0.171251297,296.9967651,0.1687927693,
296.0558167,0.1699698716,296.0558167,0.1669191122,296.0558167,0.185096249,296.0558167,0.1858098507,
294.9579163,0.1948756874,294.9579163,0.1952588111,294.9579163,0.2135943323,294.9579163,0.2152347565,
294.0167542,0.2154045403,294.0167542,0.2159712762,294.0167542,0.2374022752,294.0167542,0.2388572395,
293.07547,0.2423247695,293.07547,0.2394523919,293.07547,0.2637122273,293.07547,0.2673153281,
291.9771729,0.2726303339,291.9771729,0.2687939107,291.9771729,0.2955298126,291.9771729,0.2999036014,
291.0357056,0.2929005921,291.0357056,0.2902610898,291.0357056,0.3205612302,291.0357056,0.3243919015,
289.9371643,0.3133486211,289.9371643,0.3080624938,289.9371643,0.3453426957,289.9371643,0.3507515192,
288.9954529,0.3248393238,288.9954529,0.3248895705,288.9954529,0.3690244853,288.9954529,0.3679307997,
288.0536194,0.3428647518,288.0536194,0.3377066255,288.0536194,0.3881836236,288.0536194,0.3909075558,
286.9547119,0.3704971969,286.9547119,0.367154181,286.9547119,0.4211585522,286.9547119,0.4269396067,
286.0126953,0.3961537778,286.0126953,0.393814981,286.0126953,0.4539797008,286.0126953,0.4617782235,
285.0705566,0.4192064106,285.0705566,0.4164553583,285.0705566,0.4894978404,285.0705566,0.4957098365,
283.971283,0.4401735663,283.971283,0.4355951548,283.971283,0.5142867565,283.971283,0.5269883275,
283.0289307,0.4501923025,283.0289307,0.444978416,283.0289307,0.5324974656,283.0289307,0.5512971282,
281.9294128,0.4555978179,281.9294128,0.4499459565,281.9294128,0.5488601327,281.9294128,0.565982759,
280.9868774,0.4588382244,280.9868774,0.4527679682,280.9868774,0.561393559,280.9868774,0.5828428268,
280.04422,0.4640910923,280.04422,0.4580369592,280.04422,0.5778571367,280.04422,0.6004738808,
278.9443359,0.4683457017,278.9443359,0.4617414773,278.9443359,0.5950336456,278.9443359,0.621291101,
278.0014648,0.467535913,278.0014648,0.4612205625,278.0014648,0.6059311628,278.0014648,0.6352564692,
277.0585022,0.4676426053,277.0585022,0.4614208639,277.0585022,0.6179250479,277.0585022,0.6505941749,
275.9582825,0.4623094797,275.9582825,0.4550841749,275.9582825,0.6303875446,275.9582825,0.666407764,
275.0151062,0.4565867484,275.0151062,0.4498380721,275.0151062,0.6392402649,275.0151062,0.6821471453,
274.0718384,0.4487223625,274.0718384,0.4431820512,274.0718384,0.6475450397,274.0718384,0.694111228,
272.9712524,0.4378113449,272.9712524,0.4320766926,272.9712524,0.6544490457,272.9712524,0.7029402256,
272.027771,0.4294596612,272.027771,0.4232051969,272.027771,0.6605550647,272.027771,0.710965991,
270.9269409,0.4197596014,270.9269409,0.414319247,270.9269409,0.6677321792,270.9269409,0.7266556025,
269.9832764,0.4114900231,269.9832764,0.4059156477,269.9832764,0.6747049093,269.9832764,0.7365896702,
269.0395203,0.4044310153,269.0395203,0.3996092081,269.0395203,0.685362637,269.0395203,0.7478814125,
267.938324,0.3924137354,267.938324,0.3867201209,267.938324,0.6885429025,267.938324,0.757057488,
266.9943848,0.3789482713,266.9943848,0.3743660748,266.9943848,0.6903960705,266.9943848,0.7602769732,
266.0503235,0.3670420945,266.0503235,0.3614100218,266.0503235,0.6928055882,266.0503235,0.7680335641,
264.9487915,0.3583198488,264.9487915,0.3537070155,264.9487915,0.6979594827,264.9487915,0.7777130008,
264.0045471,0.3456154466,264.0045471,0.3413476348,264.0045471,0.6986676455,264.0045471,0.779309392,
263.0601807,0.3339746296,263.0601807,0.3295201361,263.0601807,0.6964282393,263.0601807,0.7815592289,
261.958313,0.3212010562,261.958313,0.3161112666,261.958313,0.6965478063,261.958313,0.7833871841,
261.0137939,0.3110892773,261.0137939,0.3057722747,261.0137939,0.6977912188,261.0137939,0.7821518183,
260.0691528,0.3041003644,260.0691528,0.2990747988,260.0691528,0.6961074471,260.0691528,0.7855207324,
258.9669495,0.2978268564,258.9669495,0.2926746011,258.9669495,0.6943268776,258.9669495,0.7916805148,
258.0221252,0.2892665565,258.0221252,0.2843394876,258.0221252,0.6904253364,258.0221252,0.7836931348,
257.077179,0.2771165967,257.077179,0.2731385231,257.077179,0.6780288815,257.077179,0.7745887637,
255.9746704,0.2636334002,255.9746704,0.2585096061,255.9746704,0.6645489931,255.9746704,0.7619485855,
255.0295563,0.25594154,255.0295563,0.2523272634,255.0295563,0.657810688,255.0295563,0.7520034313,
253.9268036,0.2503601611,253.9268036,0.2470345944,253.9268036,0.650705874,253.9268036,0.7440037131,
252.9815063,0.2502101958,252.9815063,0.2466311306,252.9815063,0.6446449161,252.9815063,0.735550344,
252.0361023,0.2480394393,252.0361023,0.2446663678,252.0361023,0.6384406686,252.0361023,0.7299723029,
250.9330292,0.245501563,250.9330292,0.2425882965,250.9330292,0.6283460855,250.9330292,0.7201484442,
249.9875183,0.246292755,249.9875183,0.2416985631,249.9875183,0.6210531592,249.9875183,0.7076675892,
249.0475006,0.2489821166,249.0475006,0.2444840223,249.0475006,0.6152231097,249.0475006,0.7016501427,
247.9506836,0.2587423921,247.9506836,0.2552323341,247.9506836,0.6137850285,247.9506836,0.6966782808,
247.0104675,0.2696617842,247.0104675,0.2684446871,247.0104675,0.6160515547,247.0104675,0.7000664473,
246.0701752,0.2828435004,246.0701752,0.2793449759,246.0701752,0.6171206236,246.0701752,0.7019889951,
244.9730377,0.3068127632,244.9730377,0.3076486886,244.9730377,0.6285587549,244.9730377,0.7059694529,
244.0325623,0.3346777558,244.0325623,0.3349357247,244.0325623,0.6437268257,244.0325623,0.7198847532,
242.9352264,0.3774290681,242.9352264,0.3778918982,242.9352264,0.6768475175,242.9352264,0.7435486913,
241.9945526,0.4207851589,241.9945526,0.4205045998,241.9945526,0.7134668231,241.9945526,0.7819036245,
241.0538025,0.4747695327,241.0538025,0.4847075343,241.0538025,0.7540351748,241.0538025,0.8265366554,
239.9561615,0.5646961927,239.9561615,0.5760346651,239.9561615,0.8288785219,239.9561615,0.9024699926,
239.0152283,0.6600812078,239.0152283,0.6593829393,239.0152283,0.9123623371,239.0152283,0.9747467637,
238.0742188,0.7803624272,238.0742188,0.7857240438,238.0742188,1.019981027,238.0742188,1.08518827,
236.9762726,0.9917914271,236.9762726,0.9822113514,236.9762726,1.209093213,236.9762726,1.258913875,
236.03508,1.134593248,236.03508,1.136126876,236.03508,1.365218282,236.03508,1.413741708,
234.9369202,1.407721996,234.9369202,1.403819323,234.9369202,1.644869208,234.9369202,1.66534543,
233.9955597,1.587114453,233.9955597,1.614883304,233.9955597,1.844555855,233.9955597,1.886196494,
233.0541077,1.842140555,233.0541077,1.842866063,233.0541077,2.037255287,233.0541077,2.144237041,
231.955658,2.217249632,231.955658,2.257268906,231.955658,2.573399782,231.955658,2.612272739,
231.0140381,2.488463402,231.0140381,2.5360744,231.0140381,2.733217716,231.0140381,2.642154217,
230.0723419,2.784054995,230.0723419,2.839408636,230.0723419,3.216082335,230.0723419,10,
228.973587,3.277503252,228.973587,3.291082621,228.973587,3.657234669,228.973587,10,
228.031723,3.418874025,228.031723,3.339086294,228.031723,3.484927416,228.031723,4.09616375,
226.9327698,3.613389492,226.9327698,10,226.9327698,10,226.9327698,10,
225.9907379,3.21700573,225.9907379,3.443905354,225.9907379,3.37976265,225.9907379,3.44464922,
225.0486145,3.246990442,225.0486145,3.07333374,225.0486145,3.558956861,225.0486145,3.349306822,
223.9493713,3.49166584,223.9493713,3.836401939,223.9493713,3.40149045,223.9493713,10,
223.0070953,3.788254261,223.0070953,3.425710201,223.0070953,10,223.0070953,3.396062851,
222.0647278,2.904877901,222.0647278,3.175458193,222.0647278,2.79823041,222.0647278,3.486666918,
220.96521,2.653027296,220.96521,3.452629328,220.96521,3.48836875,220.96521,2.785311937,
220.0226898,2.868163347,220.0226898,2.812306166,220.0226898,10,220.0226898,3.557827711,
218.9229736,2.8571527,218.9229736,3.232907534,218.9229736,2.594640255,218.9229736,2.85567975,
217.9802856,2.418606043,217.9802856,2.445715189,217.9802856,2.446162939,217.9802856,10,
217.0375214,10,217.0375214,2.22966671,217.0375214,10,217.0375214,10,
215.9375305,1.899242282,215.9375305,1.861983776,215.9375305,2.801781654,215.9375305,10,
214.9945984,1.700072289,214.9945984,2.231168985,214.9945984,2.661175728,214.9945984,1.70838201,
214.05159,1.615299821,214.05159,2.149994373,214.05159,2.023930073,214.05159,2.092404127,
212.9513397,1.435503364,212.9513397,1.402881265,212.9513397,10,212.9513397,1.677495122,
212.0081787,1.499996662,212.0081787,1.481140256,212.0081787,1.019745827,212.0081787,10,
211.0649414,1.027892709,211.0649414,1.488093734,211.0649414,1.513909698,211.0649414,1.233275056,
209.9644012,1.09222436,209.9644012,0.8313586712,209.9644012,10,209.9644012,10,
209.0210114,1.086865306,209.0210114,0.5305507183,209.0210114,0.9792175889,209.0210114,1.499341369,
208.0775452,0.1931674778,208.0775452,0.4974131584,208.0775452,0.8550071716,208.0775452,10,
206.9767456,10,206.9767456,0.4098445177,206.9767456,0.9869324565,206.9767456,0.8041887879,
206.0331421,10,206.0331421,0.6433358192,206.0331421,0.8817202449,206.0331421,0.7658605576,
204.9321594,0.1430363804,204.9321594,0.9123768806,204.9321594,0.213938579,204.9321594,10,
203.9883881,10,203.9883881,0.5050065517,203.9883881,10,203.9883881,10,
203.0445404,10,203.0445404,10,203.0445404,0.1107807159,203.0445404,10,
201.9433136,10,201.9433136,0.2922865748,201.9433136,0.1751493514,201.9433136,10,
200.9993134,10,200.9993134,0.1493529975,200.9993134,1.036984921,200.9993134,10,
200.0552521,0.724891901,200.0552521,0.6614255309,200.0552521,0.3673485816,200.0552521,10,

bm3wthwme3,
bm3wthwme3
Collection Time: 10/10/2019 16:45:11
Operator Name  :
Scan Software Version: 3.00(339)
Parameter List :
Instrument                        Cary 50
Instrument Version                3.00
Start (nm)                        800.0
Stop (nm)                         200.0
X Mode                            Nanometers
Y Mode                            Abs
UV-Vis Scan Rate (nm/min)         4800.000
UV-Vis Data Interval (nm)         1.00
UV-Vis Ave. Time (sec)            0.0125
Beam Mode                         Dual Beam
Baseline Correction               On
Baseline Type                     Baseline correction
Baseline File Name                T:\James_Engleback\Spec data\201910\titrations\220baaaaasaeline.CSW
Baseline Std Ref File Name
Cycle Mode                        Off
Comments
Method Log     :
Method Name    :
Date/Time stamp: 10/10/2019 15:47:42
Method Modifications:
Baseline file Changed: 10/10/2019 16:43:30, Old:, New:T:\James_Engleback\Spec data\201910\titrations\220baaaaasaeline.CSW
Storage Changed: 10/10/2019 16:43:33, Old:1, New:0
Baseline file Changed: 10/10/2019 16:43:35, Old:T:\James_Engleback\Spec data\201910\titrations\220baaaaasaeline.CSW, New:
Baseline file Changed: 10/10/2019 16:44:14, Old:, New:T:\James_Engleback\Spec data\201910\titrations\220baaaaasaeline.CSW
End Method Modifications
<Current Wavelength> , 203.0

bm3wthwme_n_DMSO_0.5ul,
bm3wthwme_n_DMSO_0.5ul
Collection Time: 10/10/2019 16:46:41
Operator Name  :
Scan Software Version: 3.00(339)
Parameter List :
Instrument                        Cary 50
Instrument Version                3.00
Start (nm)                        800.0
Stop (nm)                         200.0
X Mode                            Nanometers
Y Mode                            Abs
UV-Vis Scan Rate (nm/min)         4800.000
UV-Vis Data Interval (nm)         1.00
UV-Vis Ave. Time (sec)            0.0125
Beam Mode                         Dual Beam
Baseline Correction               On
Baseline Type                     Baseline correction
Baseline File Name                T:\James_Engleback\Spec data\201910\titrations\220baaaaasaeline.CSW
Baseline Std Ref File Name
Cycle Mode                        Off
Comments
Method Log     :
Method Name    :
Date/Time stamp: 10/10/2019 15:47:42
Method Modifications:
Baseline file Changed: 10/10/2019 16:43:30, Old:, New:T:\James_Engleback\Spec data\201910\titrations\220baaaaasaeline.CSW
Storage Changed: 10/10/2019 16:43:33, Old:1, New:0
Baseline file Changed: 10/10/2019 16:43:35, Old:T:\James_Engleback\Spec data\201910\titrations\220baaaaasaeline.CSW, New:
Baseline file Changed: 10/10/2019 16:44:14, Old:, New:T:\James_Engleback\Spec data\201910\titrations\220baaaaasaeline.CSW
End Method Modifications
<Current Wavelength> , 203.0

bm3wthwme_n_4_phenylimidazole_0.5ul,
bm3wthwme_n_4_phenylimidazole_0.5ul
Collection Time: 10/10/2019 16:47:46
Operator Name  :
Scan Software Version: 3.00(339)
Parameter List :
Instrument                        Cary 50
Instrument Version                3.00
Start (nm)                        800.0
Stop (nm)                         200.0
X Mode                            Nanometers
Y Mode                            Abs
UV-Vis Scan Rate (nm/min)         4800.000
UV-Vis Data Interval (nm)         1.00
UV-Vis Ave. Time (sec)            0.0125
Beam Mode                         Dual Beam
Baseline Correction               On
Baseline Type                     Baseline correction
Baseline File Name                T:\James_Engleback\Spec data\201910\titrations\220baaaaasaeline.CSW
Baseline Std Ref File Name
Cycle Mode                        Off
Comments
Method Log     :
Method Name    :
Date/Time stamp: 10/10/2019 15:47:42
Method Modifications:
Baseline file Changed: 10/10/2019 16:43:30, Old:, New:T:\James_Engleback\Spec data\201910\titrations\220baaaaasaeline.CSW
Storage Changed: 10/10/2019 16:43:33, Old:1, New:0
Baseline file Changed: 10/10/2019 16:43:35, Old:T:\James_Engleback\Spec data\201910\titrations\220baaaaasaeline.CSW, New:
Baseline file Changed: 10/10/2019 16:44:14, Old:, New:T:\James_Engleback\Spec data\201910\titrations\220baaaaasaeline.CSW
End Method Modifications
<Current Wavelength> , 203.0

bm3wthwme_n_4_phenylimidazole_1.0ul1,
bm3wthwme_n_4_phenylimidazole_1.0ul1
Collection Time: 10/10/2019 16:49:48
Operator Name  :
Scan Software Version: 3.00(339)
Parameter List :
Instrument                        Cary 50
Instrument Version                3.00
Start (nm)                        800.0
Stop (nm)                         200.0
X Mode                            Nanometers
Y Mode                            Abs
UV-Vis Scan Rate (nm/min)         4800.000
UV-Vis Data Interval (nm)         1.00
UV-Vis Ave. Time (sec)            0.0125
Beam Mode                         Dual Beam
Baseline Correction               On
Baseline Type                     Baseline correction
Baseline File Name                T:\James_Engleback\Spec data\201910\titrations\220baaaaasaeline.CSW
Baseline Std Ref File Name
Cycle Mode                        Off
Comments
Method Log     :
Method Name    :
Date/Time stamp: 10/10/2019 15:47:42
Method Modifications:
Baseline file Changed: 10/10/2019 16:43:30, Old:, New:T:\James_Engleback\Spec data\201910\titrations\220baaaaasaeline.CSW
Storage Changed: 10/10/2019 16:43:33, Old:1, New:0
Baseline file Changed: 10/10/2019 16:43:35, Old:T:\James_Engleback\Spec data\201910\titrations\220baaaaasaeline.CSW, New:
Baseline file Changed: 10/10/2019 16:44:14, Old:, New:T:\James_Engleback\Spec data\201910\titrations\220baaaaasaeline.CSW
End Method Modifications
<Current Wavelength> , 203.0

