BLANK,,BM3_wthEME_2IN1000,,BM3_wtheme_5in1000,,BM3_wtheme_10in1000,,
Wavelength (nm),Abs,Wavelength (nm),Abs,Wavelength (nm),Abs,Wavelength (nm),Abs,
800.0101318,-5.746646821E-6,800.0101318,0.001480921521,800.0101318,0.004203684628,800.0101318,0.008187097497,
799.0389404,0.001010831795,799.0389404,0.006260333117,799.0389404,0.00384206255,799.0389404,0.007760685869,
798.0673218,0.0008120508282,798.0673218,-3.442697198E-5,798.0673218,0.003539483529,798.0673218,0.008513812907,
796.9564209,0.0006945838104,796.9564209,0.001229536254,796.9564209,0.00622732332,796.9564209,0.009030395187,
795.9840088,-0.0008368114359,795.9840088,0.001592885586,795.9840088,0.004092508461,795.9840088,0.007083238568,
795.0111694,0.000637028832,795.0111694,0.003555299249,795.0111694,0.004595430568,795.0111694,0.007962858304,
794.0380249,0.0007726323092,794.0380249,-0.0003289378365,794.0380249,0.004525820725,794.0380249,0.009270099923,
793.0644531,-0.001047273283,793.0644531,0.004816838074,793.0644531,0.003346402897,793.0644531,0.006186543964,
791.951355,-0.0006016906118,791.951355,0.001126230229,791.951355,0.003590168431,791.951355,0.007538141683,
790.9769897,-0.0009164311341,790.9769897,0.002906916197,790.9769897,0.002438769676,790.9769897,0.00715160137,
790.0022583,-0.0007782111061,790.0022583,0.00100021984,790.0022583,0.004464696161,790.0022583,0.007089869119,
789.0271606,-0.0001353625121,789.0271606,0.002457642928,789.0271606,0.00395427132,789.0271606,0.007380977739,
788.0516968,0.001268944237,788.0516968,0.002404330997,788.0516968,0.0041406448,788.0516968,0.009945937432,
786.9364014,-0.0005464712158,786.9364014,0.006714874413,786.9364014,0.004566314165,786.9364014,0.008734718896,
785.960144,0.001746356953,785.960144,0.004970117938,785.960144,0.00572143402,785.960144,0.008851026185,
784.9835205,0.0006600240013,784.9835205,0.004966557026,784.9835205,0.004774149042,784.9835205,0.007796368562,
784.0064697,0.001463285182,784.0064697,0.0008327210671,784.0064697,0.003846580628,784.0064697,0.007630681153,
783.0291138,0.0006915503182,783.0291138,0.003332629567,783.0291138,0.003723433707,783.0291138,0.007274961099,
782.0513306,0.0007615076029,782.0513306,0.001036441536,782.0513306,0.005717289634,782.0513306,0.007465978153,
780.9334717,-0.000886052323,780.9334717,0.002767649014,780.9334717,0.005132933613,780.9334717,0.006946308073,
779.9549561,0.001015242655,779.9549561,0.004552161787,779.9549561,0.004652151838,779.9549561,0.008733239956,
778.9760132,0.0009572040872,778.9760132,0.005447581876,778.9760132,0.004215681925,778.9760132,0.008175147697,
777.9967651,0.0001298634306,777.9967651,0.0004343507171,777.9967651,0.004444296937,777.9967651,0.007592219394,
777.0170898,0.001563346013,777.0170898,0.003147854004,777.0170898,0.004249924328,777.0170898,0.008892954327,
776.0371094,0.0008539888076,776.0371094,0.005752752535,776.0371094,0.005686865188,776.0371094,0.01005777437,
775.0567017,-0.0007077666232,775.0567017,0.001173882862,775.0567017,0.00411038287,775.0567017,0.008400446735,
773.9358521,0.001342603937,773.9358521,0.00338952546,773.9358521,0.005004682112,773.9358521,0.008388016373,
772.9547119,-0.0006417047698,772.9547119,0.003732493613,772.9547119,0.003686360782,772.9547119,0.007230319083,
771.9731445,-0.0004039438209,771.9731445,0.001494324533,771.9731445,0.003708656412,771.9731445,0.00888888631,
770.991272,-0.0004335805424,770.991272,-0.0002182156604,770.991272,0.00313288765,770.991272,0.007571198512,
770.0090332,-0.0006450132933,770.0090332,0.003427277552,770.0090332,0.004053705838,770.0090332,0.008097736165,
769.0264282,-0.0003503546468,769.0264282,0.004208781291,769.0264282,0.00473533757,769.0264282,0.008244896308,
768.043396,0.001334658358,768.043396,0.004594907165,768.043396,0.00517178094,768.043396,0.008815995418,
767.0600586,-0.0007234276854,767.0600586,0.0008892125916,767.0600586,0.004477615934,767.0600586,0.008046179079,
765.935791,0.0001953017636,765.935791,0.00411503436,765.935791,0.004429390188,765.935791,0.007727614604,
764.9517212,0.0005140629364,764.9517212,0.004975511692,764.9517212,0.004611938726,764.9517212,0.008364792913,
763.9672241,0.0006253113388,763.9672241,0.004288143478,763.9672241,0.004778755363,763.9672241,0.008595180698,
762.9823608,-0.0004917102633,762.9823608,0.002589910058,762.9823608,0.003006841056,762.9823608,0.008417997509,
761.9971924,-0.0007550065056,761.9971924,0.003118130378,761.9971924,0.004681562074,761.9971924,0.008248062804,
761.0116577,-0.0008864140254,761.0116577,0.00246342225,761.0116577,0.003161282511,761.0116577,0.00719578797,
760.0256958,0.0002120837453,760.0256958,0.001143593225,760.0256958,0.003638118505,760.0256958,0.007973878644,
759.0394287,-0.0005128604826,759.0394287,0.004322548863,759.0394287,0.004540992435,759.0394287,0.008139961399,
758.0527954,0.0002000669483,758.0527954,0.00152726227,758.0527954,0.004679102451,758.0527954,0.008045915514,
757.0657959,-0.0001235102827,757.0657959,0.003966079094,757.0657959,0.00524848979,757.0657959,0.008912586607,
755.9373779,0.001206329209,755.9373779,0.004580230918,755.9373779,0.0047535263,755.9373779,0.008203346282,
754.949646,0.0001136801657,754.949646,0.001453675213,754.949646,0.00395589089,754.949646,0.008129146881,
753.9615479,-0.002257951535,753.9615479,0.003863713238,753.9615479,0.004202194512,753.9615479,0.007367233746,
752.9730835,-0.0008830039878,752.9730835,0.004458994605,752.9730835,0.003827594453,752.9730835,0.008475986309,
751.9842529,-0.000572944351,751.9842529,0.0006134127034,751.9842529,0.00487382384,751.9842529,0.008754158393,
750.9950562,0.000786376535,750.9950562,0.002495105844,750.9950562,0.004830396734,750.9950562,0.008859929629,
750.0055542,6.937495073E-6,750.0055542,0.002500078641,750.0055542,0.003858359298,750.0055542,0.009469035082,
749.015625,-0.0005455405335,749.015625,0.005671732128,749.015625,0.006664375309,749.015625,0.009617745876,
748.0253906,0.0004327182542,748.0253906,0.002298689447,748.0253906,0.00615188526,748.0253906,0.009159629233,
747.03479,0.0008831429295,747.03479,0.006090295035,747.03479,0.005049959756,747.03479,0.009017681703,
746.0438843,-0.0001300833974,746.0438843,0.004184055608,746.0438843,0.00488699181,746.0438843,0.009654032066,
745.0525513,-0.001104391413,745.0525513,0.001365220989,745.0525513,0.00483487267,745.0525513,0.009303580038,
744.0609131,0.0007425262593,744.0609131,0.004764858168,744.0609131,0.005340647418,744.0609131,0.00928787142,
743.0689087,-0.000302967208,743.0689087,0.002102907747,743.0689087,0.005623688456,743.0689087,0.008138827048,
741.9347534,0.001583402511,741.9347534,0.004550670739,741.9347534,0.005886368454,741.9347534,0.01036037039,
740.9420166,-0.001024444588,740.9420166,0.004001216497,740.9420166,0.005008164793,740.9420166,0.00828747917,
739.9489136,0.0002119801502,739.9489136,0.002421953483,739.9489136,0.005219303071,739.9489136,0.009871969931,
738.9554443,0.000404112594,738.9554443,0.001900584553,738.9554443,0.004033900797,738.9554443,0.008832189254,
737.9616699,-0.001069067861,737.9616699,0.003515187185,737.9616699,0.004223288037,737.9616699,0.009106704034,
736.9675293,-7.609807653E-5,736.9675293,0.002018898493,736.9675293,0.005886027589,736.9675293,0.00906348601,
735.9730225,0.0002165383339,735.9730225,0.003635560162,735.9730225,0.004691453185,735.9730225,0.009623753838,
734.9782104,-0.0003453367972,734.9782104,0.004138187971,734.9782104,0.005356187932,734.9782104,0.009623436257,
733.9830322,0.001629156643,733.9830322,0.003249894595,733.9830322,0.005358127411,733.9830322,0.01044958923,
732.9874878,0.0001031937281,732.9874878,0.003969004843,732.9874878,0.005961104296,732.9874878,0.008788337931,
731.9915771,-0.0001557538199,731.9915771,0.002623321721,731.9915771,0.006184679456,731.9915771,0.01009520981,
730.9953613,-0.0008650235832,730.9953613,0.002732767491,730.9953613,0.005372751039,730.9953613,0.01060640905,
729.9987793,-0.0003817537508,729.9987793,0.004361768253,729.9987793,0.004991170019,729.9987793,0.008689636365,
729.0018921,0.0008617699496,729.0018921,0.002134304959,729.0018921,0.006480857264,729.0018921,0.01046430599,
728.0046387,-0.0007188792806,728.0046387,0.002069302136,728.0046387,0.005049174186,728.0046387,0.01007817406,
727.007019,0.0003845768515,727.007019,0.003253154689,727.007019,0.005309226923,727.007019,0.008885582909,
726.0090942,6.332169141E-5,726.0090942,0.004552449565,726.0090942,0.006073467899,726.0090942,0.01081781927,
725.0108032,-6.144893996E-5,725.0108032,0.002770983614,725.0108032,0.00498153409,725.0108032,0.01026480924,
724.012146,-0.0001952916064,724.012146,0.004880473483,724.012146,0.005062530749,724.012146,0.009996210225,
723.0131836,-6.362304703E-5,723.0131836,0.004659086,723.0131836,0.006734801922,723.0131836,0.01170982979,
722.013855,-0.0006684822147,722.013855,0.001763848704,722.013855,0.004749260377,722.013855,0.008677672595,
721.0142212,-0.0006182860816,721.0142212,0.003040232696,721.0142212,0.005225040484,721.0142212,0.009479511529,
720.0142212,0.001497363555,720.0142212,0.004059480503,720.0142212,0.006461571436,720.0142212,0.01067124307,
719.013916,-3.80507081E-5,719.013916,0.004054881632,719.013916,0.005658881739,719.013916,0.009782817215,
718.0131836,-3.955196007E-5,718.0131836,0.002854695544,718.0131836,0.005710496567,718.0131836,0.01057476457,
717.012207,0.0006008922937,717.012207,0.00273719593,717.012207,0.006017033011,717.012207,0.01045815367,
716.0108643,0.0001677993714,716.0108643,0.004492759705,716.0108643,0.006218841765,716.0108643,0.01067896374,
715.0091553,0.0001228721812,715.0091553,0.003857183969,715.0091553,0.005327701569,715.0091553,0.01164018735,
714.0071411,0.0005055623478,714.0071411,0.004016055726,714.0071411,0.00558390934,714.0071411,0.01085101999,
713.0047607,0.0004834046413,713.0047607,0.003505662084,713.0047607,0.005435864907,713.0047607,0.01096954197,
712.0020752,0.0005821512314,712.0020752,0.004050857853,712.0020752,0.005975669716,712.0020752,0.01136730891,
710.9990234,0.0004069627321,710.9990234,0.004341085907,710.9990234,0.005842288956,710.9990234,0.01029091794,
709.9956665,-0.0003645802208,709.9956665,0.00340155256,709.9956665,0.005299190991,709.9956665,0.01102364995,
708.9919434,-0.0001286342158,708.9919434,0.003238993231,708.9919434,0.005520092323,708.9919434,0.01133534312,
707.987915,-0.0007562469109,707.987915,0.002715992043,707.987915,0.005709316116,707.987915,0.01017059386,
706.9835815,-0.0001753679098,706.9835815,0.004088066518,706.9835815,0.006445203442,706.9835815,0.01047830749,
705.9788208,-5.487478484E-5,705.9788208,0.0033625504,705.9788208,0.00537330145,705.9788208,0.01025176886,
704.9738159,-0.0002825828269,704.9738159,0.003261161502,704.9738159,0.006200276781,704.9738159,0.01125202607,
703.9684448,-0.000577597646,703.9684448,0.002130689099,703.9684448,0.005072430242,703.9684448,0.009936005808,
702.9627075,0.0002678470337,702.9627075,0.004165760241,702.9627075,0.005618968513,702.9627075,0.01085603703,
701.956665,-0.0002319798514,701.956665,0.004473901819,701.956665,0.006072759163,701.956665,0.01102319825,
700.9503174,0.00074755674,700.9503174,0.004549389239,700.9503174,0.005986036267,700.9503174,0.01109013986,
699.9436035,0.0005112120998,699.9436035,0.003534446703,699.9436035,0.005711204372,699.9436035,0.01084653474,
698.9365845,0.0001428363757,698.9365845,0.003068100195,698.9365845,0.00493715331,698.9365845,0.01016834192,
697.9292603,0.0001346537902,697.9292603,0.00431114994,697.9292603,0.005856404547,697.9292603,0.01084433217,
697.0655518,0.0005516436649,697.0655518,0.004286732059,697.0655518,0.006066039205,697.0655518,0.01140405983,
696.0575562,0.0002869630989,696.0575562,0.00396566093,696.0575562,0.005851261783,696.0575562,0.01229080558,
695.0492554,0.0008072271012,695.0492554,0.002986275591,695.0492554,0.005679311696,695.0492554,0.01099778991,
694.0406494,-0.0003559931938,694.0406494,0.003859717166,694.0406494,0.005737486295,694.0406494,0.0111335339,
693.0316772,0.0004303084861,693.0316772,0.002580691827,693.0316772,0.006315433886,693.0316772,0.01078048069,
692.0223999,0.001154935453,692.0223999,0.003037730232,692.0223999,0.006456579547,692.0223999,0.0108188279,
691.0128174,0.0008012622711,691.0128174,0.003488178365,691.0128174,0.004947128706,691.0128174,0.01168786362,
690.0028687,-4.773110413E-5,690.0028687,0.004433495924,690.0028687,0.005818676669,690.0028687,0.01160240546,
688.9926147,0.0004827308585,688.9926147,0.002458840609,688.9926147,0.00557874376,688.9926147,0.01123637892,
687.9819946,-0.0001749021467,687.9819946,0.002769055776,687.9819946,0.005944807082,687.9819946,0.01232108381,
686.9711304,0.0001945766271,686.9711304,0.003481915686,686.9711304,0.006497463211,686.9711304,0.01175363082,
685.9598389,0.0004253334773,685.9598389,0.004767396953,685.9598389,0.006390769035,685.9598389,0.01202858891,
684.9483032,5.866156425E-5,684.9483032,0.004162388854,684.9483032,0.006329065654,684.9483032,0.01123207528,
683.9364624,-0.0003895643749,683.9364624,0.003772338387,683.9364624,0.005781791639,683.9364624,0.01163157262,
683.0688477,0.0001377092995,683.0688477,0.003145768074,683.0688477,0.005976115819,683.0688477,0.01215629652,
682.0563965,0.0001343430631,682.0563965,0.003357933136,682.0563965,0.00593667198,682.0563965,0.01199636236,
681.0435791,-0.0004720587458,681.0435791,0.002982053207,681.0435791,0.005805349443,681.0435791,0.01229972672,
680.0304565,0.0003625289537,680.0304565,0.003766463371,680.0304565,0.006659275852,680.0304565,0.01278590783,
679.0170288,0.0008947635652,679.0170288,0.003308344632,679.0170288,0.00720376242,679.0170288,0.01276111603,
678.0032349,-0.0006155977608,678.0032349,0.00307138497,678.0032349,0.006250222679,678.0032349,0.01205924805,
676.9891357,-4.04320017E-5,676.9891357,0.003912059125,676.9891357,0.006229529157,676.9891357,0.01216478925,
675.9747314,0.0005230301758,675.9747314,0.004344929475,675.9747314,0.006845551543,675.9747314,0.01445227396,
674.960022,-0.0004473896406,674.960022,0.002333692042,674.960022,0.005858241115,674.960022,0.01280003786,
673.9450073,-0.0002764259116,673.9450073,0.004061309155,673.9450073,0.005990603007,673.9450073,0.01366602629,
672.9296265,-0.0005633790279,672.9296265,0.004030269105,672.9296265,0.007003574166,672.9296265,0.0129480008,
672.059082,-0.0007315939292,672.059082,0.00443686964,672.059082,0.006957224105,672.059082,0.01300779823,
671.0431519,0.0006796239759,671.0431519,0.003694923827,671.0431519,0.007635028102,671.0431519,0.01327565126,
670.0268555,-0.0005610006046,670.0268555,0.003527635476,670.0268555,0.00606863806,670.0268555,0.01349853817,
669.0103149,0.001275564544,669.0103149,0.005703100003,669.0103149,0.006717818789,669.0103149,0.01357659884,
667.9934082,-0.0009391105268,667.9934082,0.005120282527,667.9934082,0.006579373963,667.9934082,0.01546212938,
666.9761963,-0.0005001394311,666.9761963,0.003900749143,666.9761963,0.008130623959,666.9761963,0.01496203896,
665.9586792,0.0005776669714,665.9586792,0.005035608541,665.9586792,0.007641166449,665.9586792,0.0155387735,
664.9407959,-0.0001714348182,664.9407959,0.004335360136,664.9407959,0.007377607282,664.9407959,0.01513180789,
664.0681152,0.0003864163882,664.0681152,0.006127862725,664.0681152,0.007814949378,664.0681152,0.01560904365,
663.0497437,0.0002988527704,663.0497437,0.005263817497,663.0497437,0.007568643428,663.0497437,0.0157587193,
662.0310059,-0.000500759983,662.0310059,0.004409097135,662.0310059,0.007393089589,662.0310059,0.01587904245,
661.0119629,0.0002164606267,661.0119629,0.004573063459,661.0119629,0.007519941311,661.0119629,0.01569212787,
659.9925537,-0.0004707141197,659.9925537,0.00418525748,659.9925537,0.007441039663,659.9925537,0.01677740365,
658.9729004,-0.0001278578566,658.9729004,0.005136915017,658.9729004,0.008368936367,658.9729004,0.0169168245,
657.9529419,-0.0001211294366,657.9529419,0.004355283454,657.9529419,0.008410185575,657.9529419,0.01672768593,
656.9326172,-0.0006088769296,656.9326172,0.005248279776,656.9326172,0.007780872285,656.9326172,0.01660656184,
656.0578613,0.0004115488555,656.0578613,0.005483154207,656.0578613,0.007943664677,656.0578613,0.01718419231,
655.0369873,-0.000231048456,655.0369873,0.005837776233,655.0369873,0.008449088782,655.0369873,0.01688094996,
654.0158081,-9.338653035E-5,654.0158081,0.006976557896,654.0158081,0.008139038458,654.0158081,0.01692775264,
652.9943237,-6.740183017E-5,652.9943237,0.006490736734,652.9943237,0.009254101664,652.9943237,0.01811203174,
651.9725342,0.0003281768295,651.9725342,0.005547699984,651.9725342,0.007987245917,651.9725342,0.01771855727,
650.9504395,2.399695586E-5,650.9504395,0.006055040751,650.9504395,0.007920043543,650.9504395,0.018222427,
649.9280396,-8.142962179E-5,649.9280396,0.005291172769,649.9280396,0.008185514249,649.9280396,0.01841429807,
649.0514526,-0.0004469241831,649.0514526,0.005968111102,649.0514526,0.008260092698,649.0514526,0.01802432723,
648.0284424,0.0003668296267,648.0284424,0.005455445964,648.0284424,0.009320771322,648.0284424,0.01955100335,
647.005188,0.001150367316,647.005188,0.008104830049,647.005188,0.009462420829,647.005188,0.01975928247,
645.9815674,-3.867191481E-5,645.9815674,0.004667798989,645.9815674,0.007716810796,645.9815674,0.01917499863,
644.9577026,1.118288219E-5,644.9577026,0.005311742891,644.9577026,0.008820909075,644.9577026,0.01893876866,
643.9334717,0.0005663658376,643.9334717,0.005394687876,643.9334717,0.009416045621,643.9334717,0.01841302775,
643.0553589,-0.0003855814866,643.0553589,0.006973059382,643.0553589,0.009434801526,643.0553589,0.01866116002,
642.0306396,0.0004473327426,642.0306396,0.005722089671,642.0306396,0.009319686331,642.0306396,0.01966715604,
641.0055542,-0.0008064270951,641.0055542,0.004884740338,641.0055542,0.007963359356,641.0055542,0.01807052456,
639.9801636,0.0007559842779,639.9801636,0.004170360044,639.9801636,0.008051558398,639.9801636,0.01856764406,
638.9545288,-0.0004030645068,638.9545288,0.005246446002,638.9545288,0.009186888114,638.9545288,0.01888855919,
637.9285278,-0.0002740976634,637.9285278,0.005970263388,637.9285278,0.008398414589,637.9285278,0.01830369048,
637.0488892,-0.0001236655517,637.0488892,0.005135789048,637.0488892,0.01011881791,637.0488892,0.01949219406,
636.0223999,-0.0001295658294,636.0223999,0.004817283247,636.0223999,0.008542430587,636.0223999,0.01873631589,
634.9955444,0.0001519772195,634.9955444,0.00556044234,634.9955444,0.008779700845,634.9955444,0.01888052933,
633.9684448,-6.859240239E-5,633.9684448,0.007363626733,633.9684448,0.00834267959,633.9684448,0.01789674349,
632.940979,0.00138415175,632.940979,0.006124108098,632.940979,0.008429874666,632.940979,0.01930734329,
632.0601196,-0.0002027950977,632.0601196,0.005926962476,632.0601196,0.008353076875,632.0601196,0.0189803578,
631.0321045,-0.0003662355302,631.0321045,0.005777568091,631.0321045,0.009593901224,631.0321045,0.02003260702,
630.0038452,0.0002620968444,630.0038452,0.006340964697,630.0038452,0.008794995025,630.0038452,0.0195701737,
628.9752808,0.0003043444012,628.9752808,0.006793617737,628.9752808,0.008640967309,628.9752808,0.01910217479,
627.9464111,4.214440196E-5,627.9464111,0.006067246664,627.9464111,0.008911185898,627.9464111,0.01889258809,
627.06427,8.563922893E-5,627.06427,0.006602922454,627.06427,0.008364238776,627.06427,0.0188282989,
626.0348511,0.0003422437876,626.0348511,0.005297959317,626.0348511,0.009443398565,626.0348511,0.01872282848,
625.005127,-0.001121122623,625.005127,0.005609213375,625.005127,0.008056727238,625.005127,0.01842461526,
623.9750977,0.0007175302017,623.9750977,0.005562933162,623.9750977,0.008857921697,623.9750977,0.01869734377,
622.9448242,-1.206269371E-5,622.9448242,0.005730063189,622.9448242,0.007680264767,622.9448242,0.0183751937,
622.0614624,0.0007772223325,622.0614624,0.004947914276,622.0614624,0.008697242476,622.0614624,0.01879080571,
621.0306396,-0.0001816814911,621.0306396,0.005936750676,621.0306396,0.008283415809,621.0306396,0.0186408665,
619.9994507,-0.0002113333903,619.9994507,0.004405776039,619.9994507,0.008159981109,619.9994507,0.01896721683,
618.9680176,0.0004734016547,618.9680176,0.004575130064,618.9680176,0.008879586123,618.9680176,0.01851220988,
617.9362793,0.0004738421994,617.9362793,0.006385646295,617.9362793,0.00893890392,617.9362793,0.01935530081,
617.0517578,0.0006258297944,617.0517578,0.00596630061,617.0517578,0.008826403879,617.0517578,0.01844503358,
616.0194702,-0.0004185814178,616.0194702,0.005242987536,616.0194702,0.008790927008,616.0194702,0.01909898221,
614.9868774,-0.000151613538,614.9868774,0.006115444936,614.9868774,0.009657287039,614.9868774,0.0193015784,
613.9540405,-0.000923405576,613.9540405,0.005674354732,613.9540405,0.008184591308,613.9540405,0.0188544672,
613.0685425,6.086217763E-5,613.0685425,0.006562632974,613.0685425,0.008801704273,613.0685425,0.02015721239,
612.0351563,-0.0001217505269,612.0351563,0.007220949046,612.0351563,0.008641310036,612.0351563,0.02025950514,
611.0014648,0.0006777054514,611.0014648,0.006131275557,611.0014648,0.009414670058,611.0014648,0.01962512173,
609.9674683,0.0007373402477,609.9674683,0.006606181618,609.9674683,0.009672268294,609.9674683,0.0210053809,
608.9332275,-0.0001255805546,608.9332275,0.007088421844,608.9332275,0.009780910797,608.9332275,0.02160380408,
608.0465088,-2.578165913E-5,608.0465088,0.00737929251,608.0465088,0.01027215179,608.0465088,0.02100812458,
607.0117188,-0.0002138689742,607.0117188,0.006257392,607.0117188,0.009430330247,607.0117188,0.02072826587,
605.9766235,0.0003684877302,605.9766235,0.00673072692,605.9766235,0.0102344621,605.9766235,0.02210256271,
604.9412842,0.0007803601329,604.9412842,0.007017516997,604.9412842,0.009920671582,604.9412842,0.02212653309,
604.0535889,0.001099810703,604.0535889,0.007647700142,604.0535889,0.009943713434,604.0535889,0.02324640751,
603.0177002,0.0002537825203,603.0177002,0.006624685135,603.0177002,0.01000503171,603.0177002,0.02274022438,
601.9815674,0.0003368034668,601.9815674,0.007226028945,601.9815674,0.01031437702,601.9815674,0.02355248854,
600.9450684,0.0005075838417,600.9450684,0.006917559542,600.9450684,0.01020228863,600.9450684,0.02377943136,
600.0564575,-0.0007401218754,600.0564575,0.008402162232,600.0564575,0.01129214186,600.0564575,0.02498772182,
599.0194702,5.33024795E-5,599.0194702,0.0078099682,599.0194702,0.01209084131,599.0194702,0.02514694631,
597.9822388,-0.0002020706161,597.9822388,0.007218817249,597.9822388,0.01158145536,597.9822388,0.02526979148,
596.9446411,0.0007079366478,596.9446411,0.008357642218,596.9446411,0.01214964129,596.9446411,0.02707950585,
596.0551147,0.0007212380297,596.0551147,0.008818690665,596.0551147,0.01284605637,596.0551147,0.02731609903,
595.0170288,-0.0001874774898,595.0170288,0.008019967936,595.0170288,0.01247455832,595.0170288,0.02677423321,
593.9786987,0.0005032040062,593.9786987,0.009346875362,593.9786987,0.01262686122,593.9786987,0.02824760228,
592.9400635,-0.0007259085542,592.9400635,0.008723678999,592.9400635,0.01408260874,592.9400635,0.03007950261,
592.0495605,2.907091584E-5,592.0495605,0.01046144217,592.0495605,0.01460313052,592.0495605,0.03186779097,
591.010437,0.0004177415103,591.010437,0.01047451515,591.010437,0.01486894209,591.010437,0.03228283301,
589.9710083,0.0005853654002,589.9710083,0.01013739128,589.9710083,0.01542744692,589.9710083,0.03357355297,
588.9312744,-7.299229765E-5,588.9312744,0.01104648504,588.9312744,0.0161703825,588.9312744,0.03474112973,
588.039917,-0.0003427502525,588.039917,0.01042874809,588.039917,0.01665995084,588.039917,0.03603198379,
586.9996948,0.0002068004542,586.9996948,0.01301998738,586.9996948,0.01765910536,586.9996948,0.03826221079,
585.9591675,8.605348557E-5,585.9591675,0.01352110319,585.9591675,0.0182658378,585.9591675,0.03963372111,
585.0670776,0.0008721450577,585.0670776,0.01407632511,585.0670776,0.01968627796,585.0670776,0.04167474806,
584.026062,-0.0002530392667,584.026062,0.01317725796,584.026062,0.02023148909,584.026062,0.04387329891,
582.9848022,-0.0003465783375,582.9848022,0.0156382937,582.9848022,0.02093360759,582.9848022,0.04510899633,
581.9432373,0.0004227941681,581.9432373,0.01611820795,581.9432373,0.02209711634,581.9432373,0.04745196179,
581.0502319,-0.0002227692748,581.0502319,0.01678227447,581.0502319,0.02433279157,581.0502319,0.04908650741,
580.0081787,-0.000336852856,580.0081787,0.01740410924,580.0081787,0.02401023731,580.0081787,0.05023856461,
578.9658203,0.0001186774898,578.9658203,0.01878442615,578.9658203,0.02548780479,578.9658203,0.05298522487,
578.0721436,0.0004607816227,578.0721436,0.01802537963,578.0721436,0.02679796517,578.0721436,0.05462159961,
577.0292969,-0.0003542343911,577.0292969,0.0185161531,577.0292969,0.02673175186,577.0292969,0.05534557626,
575.9862061,0.0008935444057,575.9862061,0.01947779022,575.9862061,0.0279060062,575.9862061,0.05770152807,
574.9428101,-0.0003272306349,574.9428101,0.02054630779,574.9428101,0.02846874483,574.9428101,0.05964822322,
574.0482178,-0.0003200914362,574.0482178,0.02196533419,574.0482178,0.02981231362,574.0482178,0.06068041176,
573.0043335,0.0005806737463,573.0043335,0.02272835933,573.0043335,0.03026444465,573.0043335,0.06167546287,
571.960144,-0.0004138746881,571.960144,0.0217092149,571.960144,0.03057934716,571.960144,0.06257684529,
571.0649414,-0.000137122217,571.0649414,0.02225787193,571.0649414,0.03150193393,571.0649414,0.06249436364,
570.0202637,7.124403055E-5,570.0202637,0.02132260986,570.0202637,0.0310125649,570.0202637,0.06266666949,
568.9753418,0.0007385329809,568.9753418,0.02167402953,568.9753418,0.03129865974,568.9753418,0.06326450408,
567.9301147,-0.0003788053291,567.9301147,0.02150103077,567.9301147,0.03074474633,567.9301147,0.06254790723,
567.0339966,-0.000490624283,567.0339966,0.0213147793,567.0339966,0.0306689553,567.0339966,0.06222918257,
565.9882813,-0.0002813928295,565.9882813,0.02017353661,565.9882813,0.02997392789,565.9882813,0.06202868372,
564.9423218,2.935568045E-5,564.9423218,0.02050047182,564.9423218,0.03050488979,564.9423218,0.06245622411,
564.0455933,-0.001310749212,564.0455933,0.01985026337,564.0455933,0.02964391559,564.0455933,0.06045497954,
562.9990845,0.0002195426059,562.9990845,0.02043925412,562.9990845,0.02965203486,562.9990845,0.06129841134,
561.9523926,-0.0005102749565,561.9523926,0.0191847384,561.9523926,0.02856726386,561.9523926,0.06029473245,
561.0549927,-0.0002066244051,561.0549927,0.02072913572,561.0549927,0.02920311689,561.0549927,0.06008918211,
560.0077515,0.000638791651,560.0077515,0.02129485086,560.0077515,0.02848814987,560.0077515,0.06035011634,
558.9602661,0.0001006821985,558.9602661,0.01931770705,558.9602661,0.02943098173,558.9602661,0.05995126814,
558.0621948,-0.0001918244234,558.0621948,0.01904875413,558.0621948,0.02813186496,558.0621948,0.05993670598,
557.0142212,-0.0001055501489,557.0142212,0.01875609905,557.0142212,0.02867407352,557.0142212,0.05913921818,
555.9659424,0.0001468241389,555.9659424,0.01974690147,555.9659424,0.02879886143,555.9659424,0.05986969918,
555.0672607,0.0003972983104,555.0672607,0.01924496703,555.0672607,0.02819948085,555.0672607,0.05923720449,
554.0185547,-0.001273739035,554.0185547,0.01830036938,554.0185547,0.02703311108,554.0185547,0.05894823745,
552.9695435,-0.0005329238484,552.9695435,0.01936128177,552.9695435,0.02874841169,552.9695435,0.0603373535,
552.0701904,-1.573838381E-5,552.0701904,0.01932769455,552.0701904,0.02850174904,552.0701904,0.061156746,
551.020752,-4.457334944E-5,551.020752,0.01997644268,551.020752,0.02888600156,551.020752,0.06157698482,
549.9710083,-5.896423318E-5,549.9710083,0.02143401653,549.9710083,0.02967079915,549.9710083,0.06303662062,
549.0710449,0.0001910027786,549.0710449,0.02195267379,549.0710449,0.03015740961,549.0710449,0.0636922121,
548.020813,0.0002051688643,548.020813,0.02017679065,548.020813,0.02959428169,548.020813,0.06388766319,
546.9703369,-0.000121957557,546.9703369,0.02130194753,546.9703369,0.03078017384,546.9703369,0.06504029036,
546.0697021,-6.434774696E-5,546.0697021,0.02080177143,546.0697021,0.03076833673,546.0697021,0.06587912887,
545.0187988,0.001046042307,545.0187988,0.02195436135,545.0187988,0.03131888434,545.0187988,0.06640405953,
543.9675903,0.0003933600674,543.9675903,0.02239753678,543.9675903,0.03165509924,543.9675903,0.06695795804,
543.0663452,0.0001431212149,543.0663452,0.02218450047,543.0663452,0.03174328804,543.0663452,0.06704615802,
542.0146484,0.0009028567583,542.0146484,0.02257080935,542.0146484,0.0321833007,542.0146484,0.06741647422,
540.9627075,0.0006521168398,540.9627075,0.02236335911,540.9627075,0.03195201233,540.9627075,0.0682271421,
540.0608521,-8.335201528E-6,540.0608521,0.02350127883,540.0608521,0.03269369528,540.0608521,0.06875279546,
539.0084229,-0.000377460412,539.0084229,0.0220253244,539.0084229,0.03186330572,539.0084229,0.06765099615,
537.9557495,-4.302034722E-5,537.9557495,0.02252265997,537.9557495,0.03259870037,537.9557495,0.06821227074,
537.0532837,-1.67737835E-5,537.0532837,0.02365520224,537.0532837,0.03236847371,537.0532837,0.06835549325,
536.0001221,-0.0001654833468,536.0001221,0.02386442013,536.0001221,0.03248891234,536.0001221,0.06781975925,
534.9467163,-8.733047434E-5,534.9467163,0.02332940884,534.9467163,0.03236217052,534.9467163,0.06766079366,
534.0436401,0.0001585546124,534.0436401,0.02311512455,534.0436401,0.032549344,534.0436401,0.06788197905,
532.9897461,4.872012505E-5,532.9897461,0.02240865678,532.9897461,0.0325704366,532.9897461,0.06718923897,
531.9356689,7.126991841E-5,531.9356689,0.02212111279,531.9356689,0.03200849146,531.9356689,0.06712705642,
531.0319214,0.0003612594737,531.0319214,0.0228160359,531.0319214,0.03206110373,531.0319214,0.06681021303,
529.977356,0.0005572421942,529.977356,0.02202965505,529.977356,0.03146981448,529.977356,0.0668592453,
529.0732422,0.0001546962158,529.0732422,0.02194194682,529.0732422,0.03164009377,529.0732422,0.06562298536,
528.0181885,0.000983173959,528.0181885,0.02317371592,528.0181885,0.03085520677,528.0181885,0.06444031,
526.9628906,0.001185225789,526.9628906,0.02172458917,526.9628906,0.03057176434,526.9628906,0.06438572705,
526.0581665,0.0003614926245,526.0581665,0.02084522322,526.0581665,0.02994278073,526.0581665,0.06351944059,
525.0023804,0.001275564544,525.0023804,0.02112771198,525.0023804,0.02976496145,525.0023804,0.06261215359,
523.9464111,0.0007715950487,523.9464111,0.02087898366,523.9464111,0.02929886803,523.9464111,0.06173209473,
523.0410767,0.0002977130061,523.0410767,0.02047455683,523.0410767,0.02921266854,523.0410767,0.06122299656,
521.9846191,-0.001318078605,521.9846191,0.01890107803,521.9846191,0.02764558792,521.9846191,0.05966345966,
520.9279175,-0.0002306862443,520.9279175,0.01963061839,520.9279175,0.02811714448,520.9279175,0.05970375985,
520.0219727,2.487712845E-5,520.0219727,0.01938285492,520.0219727,0.02873889729,520.0219727,0.05960026383,
518.9647827,0.000175464651,518.9647827,0.01971128024,518.9647827,0.02947256155,518.9647827,0.05935076252,
518.0584717,0.0002021128894,518.0584717,0.01936550438,518.0584717,0.02764120139,518.0584717,0.05857979506,
517.0008545,-9.3593575E-5,517.0008545,0.01851377636,517.0008545,0.02703542449,517.0008545,0.05774025992,
515.9429932,0.0007306762855,515.9429932,0.01876566745,515.9429932,0.02693975903,515.9429932,0.05726000667,
515.0360718,-2.453920388E-5,515.0360718,0.01930182241,515.0360718,0.02643195167,515.0360718,0.05643472075,
513.9777222,0.0001595645299,513.9777222,0.01875150576,513.9777222,0.02616834454,513.9777222,0.05609453097,
513.0704346,0.0008609659271,513.0704346,0.01900434494,513.0704346,0.02631254494,513.0704346,0.05567853153,
512.0116577,-1.739502295E-5,512.0116577,0.01833377033,512.0116577,0.02587233856,512.0116577,0.05532916635,
510.9526672,0.0004116265918,510.9526672,0.01728834584,510.9526672,0.02553008124,510.9526672,0.05441648513,
510.0447693,0.0001031678403,510.0447693,0.01743859984,510.0447693,0.02540878206,510.0447693,0.05414539576,
508.985321,0.001187743619,508.985321,0.01722935773,508.985321,0.02570606396,508.985321,0.05409159139,
507.9256287,0.0009497844148,507.9256287,0.01712777466,507.9256287,0.02505866066,507.9256287,0.05396905169,
507.0171204,0.000219154128,507.0171204,0.01733071916,507.0171204,0.02485815994,507.0171204,0.05351760238,
505.9570007,0.0007870248519,505.9570007,0.01766490191,505.9570007,0.02457876876,505.9570007,0.05317146704,
505.0481262,0.0007473233854,505.0481262,0.01729028486,505.0481262,0.02458504215,505.0481262,0.05305734649,
503.9875488,4.789168088E-5,503.9875488,0.01751074195,503.9875488,0.02395199798,503.9875488,0.05286829174,
502.9267273,-9.763089474E-5,502.9267273,0.01606225222,502.9267273,0.02392738126,502.9267273,0.05189059675,
502.0172729,0.0001419041801,502.0172729,0.01630963385,502.0172729,0.02373237535,502.0172729,0.05244946852,
500.9560242,-5.073620287E-6,500.9560242,0.01763125695,500.9560242,0.02351600677,500.9560242,0.05108071119,
500.0462036,0.0003254826588,500.0462036,0.01619322039,500.0462036,0.02379282936,500.0462036,0.05153660104,
498.9844971,-1.113082362E-5,498.9844971,0.01594370231,498.9844971,0.02321863547,498.9844971,0.05148285627,
498.0742798,-4.95429158E-5,498.0742798,0.01633452252,498.0742798,0.02405425906,498.0742798,0.05176686868,
497.012146,0.000217392997,497.012146,0.01646960713,497.012146,0.02369265258,497.012146,0.05136393756,
495.9497986,-0.0002398449142,495.9497986,0.01592581905,495.9497986,0.02354470082,495.9497986,0.0511597693,
495.0390015,0.0001591502078,495.0390015,0.01636161655,495.0390015,0.02349496633,495.0390015,0.05106498674,
493.9762268,-0.0001030139392,493.9762268,0.01631699875,493.9762268,0.0233563967,493.9762268,0.05109026283,
493.0650635,-8.479415555E-5,493.0650635,0.0160877984,493.0650635,0.02341870964,493.0650635,0.05120662972,
492.0018311,0.0001111167876,492.0018311,0.01612782478,492.0018311,0.02415241115,492.0018311,0.05141218752,
490.9383545,0.0004156427458,490.9383545,0.0159049537,490.9383545,0.02345103025,490.9383545,0.05136682093,
490.0266418,-5.62206842E-5,490.0266418,0.01616315544,490.0266418,0.02378867194,490.0266418,0.05161221698,
488.9627686,0.0001857715542,488.9627686,0.01687110029,488.9627686,0.02374787815,488.9627686,0.05205188319,
488.0506592,-0.0009674192988,488.0506592,0.01605792716,488.0506592,0.02267023548,488.0506592,0.05065973848,
486.9863586,0.000329187169,486.9863586,0.01636086404,486.9863586,0.02405696735,486.9863586,0.05209638923,
486.0738831,-0.0001606186124,486.0738831,0.01572261751,486.0738831,0.02363497578,486.0738831,0.05153432861,
485.0091553,-2.252020931E-5,485.0091553,0.01663953625,485.0091553,0.02393785678,485.0091553,0.05265973508,
483.9441833,0.0001704148744,483.9441833,0.01666872017,483.9441833,0.02416907623,483.9441833,0.05285440385,
483.0311584,0.0002227540972,483.0311584,0.01704605855,483.0311584,0.02419573441,483.0311584,0.05326644704,
481.9657593,0.0003872714005,481.9657593,0.0172273647,481.9657593,0.02463624254,481.9657593,0.05402735621,
481.0523682,0.0001809547248,481.0523682,0.01748185232,481.0523682,0.02483069524,481.0523682,0.05415222794,
479.9865417,-3.851661313E-5,479.9865417,0.01740551181,479.9865417,0.02483853325,479.9865417,0.05495620146,
479.0728149,4.758101568E-5,479.0728149,0.01686996967,479.0728149,0.02524959855,479.0728149,0.055364687,
478.0065918,-0.000254022365,478.0065918,0.01754327305,478.0065918,0.02555251122,478.0065918,0.05580214038,
476.9401245,0.0002092349023,476.9401245,0.01796221733,476.9401245,0.02581656724,476.9401245,0.05708927289,
476.0258179,0.0002019316016,476.0258179,0.01812482439,476.0258179,0.02615363523,476.0258179,0.05798020214,
474.9589233,0.0002467633749,474.9589233,0.01847655326,474.9589233,0.02654305287,474.9589233,0.05856649205,
474.044281,0.0003331507323,474.044281,0.01880045608,474.044281,0.02701988816,474.044281,0.05981209129,
472.9769897,0.0002124722232,472.9769897,0.01891648956,472.9769897,0.02714188583,472.9769897,0.06038530543,
472.0619812,0.0002884395653,472.0619812,0.01957450621,472.0619812,0.02798830159,472.0619812,0.06149973348,
470.9942627,2.026918628E-5,470.9942627,0.01926758885,470.9942627,0.02841703407,470.9942627,0.06248539686,
469.9263306,0.000197606656,469.9263306,0.02005987801,469.9263306,0.02926201001,469.9263306,0.06447490305,
469.0108032,-1.620431431E-5,469.0108032,0.02047946677,469.0108032,0.02975905687,469.0108032,0.06573180854,
467.9424438,-0.0001501126681,467.9424438,0.02194265462,467.9424438,0.03031293303,467.9424438,0.06739902496,
467.0265503,0.0002057645324,467.0265503,0.02119919099,467.0265503,0.03118950501,467.0265503,0.06890308857,
465.9577942,0.0004977617064,465.9577942,0.02173204534,465.9577942,0.03201924637,465.9577942,0.07074905187,
465.0415344,-0.0004503375967,465.0415344,0.02237208001,465.0415344,0.03251463547,465.0415344,0.07236623019,
463.9723816,0.0002950967173,463.9723816,0.02328983136,463.9723816,0.03413366526,463.9723816,0.07518426329,
463.0557861,-0.0001969475561,463.0557861,0.02394660935,463.0557861,0.0345319584,463.0557861,0.07703646272,
461.9862061,4.315405386E-5,461.9862061,0.02478451282,461.9862061,0.03591570258,461.9862061,0.07944400609,
461.0692749,0.0007032955182,461.0692749,0.02554111741,461.0692749,0.03692785278,461.0692749,0.08142611384,
459.9992981,0.0002499750699,459.9992981,0.02650320902,459.9992981,0.03844467551,459.9992981,0.08406716585,
458.9291077,-0.000171383057,458.9291077,0.02746619657,458.9291077,0.03935591504,458.9291077,0.08751936257,
458.0116272,0.0003099138266,458.0116272,0.02870402299,458.0116272,0.04128957912,458.0116272,0.09093887359,
456.94104,0.0008097686223,456.94104,0.03001436777,456.94104,0.04294445738,456.94104,0.09406679869,
456.0232239,-5.135472384E-5,456.0232239,0.03169299662,456.0232239,0.04420189932,456.0232239,0.09709875286,
454.95224,0.000186652047,454.95224,0.03296397626,454.95224,0.04628644511,454.95224,0.1016849056,
454.0340576,-0.0002948446199,454.0340576,0.03305960819,454.0340576,0.04772112891,454.0340576,0.1043343619,
452.962677,-7.904855011E-5,452.962677,0.03588021919,452.962677,0.05011452362,452.962677,0.1096202582,
452.0441589,-0.0001399687608,452.0441589,0.03669281304,452.0441589,0.05195343494,452.0441589,0.1140914708,
450.9723816,8.944523142E-5,450.9723816,0.03859519213,450.9723816,0.05516201258,450.9723816,0.119318828,
450.0535583,0.0005105641903,450.0535583,0.04055314139,450.0535583,0.05690683424,450.0535583,0.1242462024,
448.9813538,2.412639333E-5,448.9813538,0.04172429815,448.9813538,0.05957021564,448.9813538,0.1302746236,
448.0621948,-0.0002155248512,448.0621948,0.04397526383,448.0621948,0.06226936355,448.0621948,0.1372375786,
446.989624,0.0002218476293,446.989624,0.04612371325,446.989624,0.06576929986,446.989624,0.1443385035,
446.0700989,-0.0004604742571,446.0700989,0.04826889932,446.0700989,0.06862778217,446.0700989,0.1514417082,
444.9971313,0.0001806180662,444.9971313,0.05119762942,444.9971313,0.07298780233,444.9971313,0.1601983458,
443.9239502,0.0005171211087,443.9239502,0.05377942324,443.9239502,0.07647234946,443.9239502,0.1698617637,
443.0039368,-0.0001820437465,443.0039368,0.05733446777,443.0039368,0.08146030456,443.0039368,0.1791417003,
441.9303589,0.0002184289478,441.9303589,0.06118845567,441.9303589,0.08690742403,441.9303589,0.1911496669,
441.0100098,0.0002048839815,441.0100098,0.06448277086,441.0100098,0.09140598774,441.0100098,0.2014454156,
439.9360657,0.0001480929786,439.9360657,0.06954357773,439.9360657,0.09863003343,439.9360657,0.2172422558,
439.0153809,-0.000234825784,439.0153809,0.07321616262,439.0153809,0.1035984382,439.0153809,0.2274605781,
437.94104,-0.0002355501929,437.94104,0.07837606966,437.94104,0.1117050573,437.94104,0.2440626174,
437.0200195,-8.577762492E-5,437.0200195,0.08520069718,437.0200195,0.1203845739,437.0200195,0.2626194656,
435.945282,-0.0004271671933,435.945282,0.09137863666,435.945282,0.1291459501,435.945282,0.2809714973,
435.0239563,0.0001393924176,435.0239563,0.09810395539,435.0239563,0.1398326457,435.0239563,0.3000111878,
433.9488525,-0.0003660803486,433.9488525,0.1054143757,433.9488525,0.1500091851,433.9488525,0.3217148185,
433.0271606,2.91485776E-5,433.0271606,0.1130312309,433.0271606,0.1596937627,433.0271606,0.3412232995,
431.9516907,-5.290769695E-5,431.9516907,0.1222084984,431.9516907,0.1714711189,431.9516907,0.3665638566,
431.0296936,0.0002477735106,431.0296936,0.1313480586,431.0296936,0.1858935207,431.0296936,0.3925564587,
429.9538269,-0.0002830484591,429.9538269,0.1407366693,429.9538269,0.1963943243,429.9538269,0.4165810347,
429.0315247,-0.0001420389599,429.0315247,0.1485035121,429.0315247,0.2072539777,429.0315247,0.4349431396,
427.9552917,0.0003182033252,427.9552917,0.1580260694,427.9552917,0.2210017443,427.9552917,0.4602600336,
427.0326538,-0.0004778508446,427.0326538,0.1650123894,427.0326538,0.2312372476,427.0326538,0.4809094965,
425.9560242,-0.0003265581036,425.9560242,0.1744767576,425.9560242,0.2438283861,425.9560242,0.5060123801,
425.0330811,8.297245222E-5,425.0330811,0.182085678,425.0330811,0.2538572848,425.0330811,0.5249426961,
423.9560852,-9.364533616E-5,423.9560852,0.1895302236,423.9560852,0.2642181516,423.9560852,0.5419353247,
423.0328064,-0.000183958502,423.0328064,0.1939748079,423.0328064,0.2703968585,423.0328064,0.5518655181,
421.9554443,1.115699524E-5,421.9554443,0.198671937,421.9554443,0.2763183117,421.9554443,0.5626257658,
421.0318604,-6.28983471E-5,421.0318604,0.201851964,421.0318604,0.2807564735,421.0318604,0.5687572956,
419.9541321,0.0003796542005,419.9541321,0.2042314559,419.9541321,0.2828285992,419.9541321,0.5709907413,
419.0302124,-0.0006054130499,419.0302124,0.2020948827,419.0302124,0.2812937498,419.0302124,0.5701240301,
417.9521484,0.0003179960768,417.9521484,0.2009409666,417.9521484,0.279237926,417.9521484,0.5638489127,
417.0278931,0.0004822903138,417.0278931,0.2006377131,417.0278931,0.2771031857,417.0278931,0.5584882498,
415.9494629,8.071994671E-5,415.9494629,0.1951774508,415.9494629,0.2718710899,415.9494629,0.5457914472,
415.0249023,9.633236914E-5,415.0249023,0.1902251095,415.0249023,0.2649713159,415.0249023,0.534681797,
413.946106,5.938647155E-5,413.946106,0.1856887192,413.946106,0.2568091452,413.946106,0.5174130201,
413.0212402,0.000297764811,413.0212402,0.1804898232,413.0212402,0.2513622642,413.0212402,0.5066125393,
411.9420776,-0.0007822937914,411.9420776,0.1739657223,411.9420776,0.2413507402,411.9420776,0.4909886122,
411.0169067,-0.000887653965,411.0169067,0.1678851843,411.0169067,0.2343789041,411.0169067,0.4776955843,
409.9373779,-0.0003415604297,409.9373779,0.1608906239,409.9373779,0.2257641107,409.9373779,0.4587700069,
409.0119019,-0.0001758854196,409.0119019,0.1563489586,409.0119019,0.2173375338,409.0119019,0.4434497952,
407.9320068,-0.0004933133605,407.9320068,0.1503814459,407.9320068,0.2083343863,407.9320068,0.42730093,
407.0062256,-0.0001197319798,407.0062256,0.1473043412,407.0062256,0.2053723931,407.0062256,0.4177336693,
405.9259644,-8.262015035E-5,405.9259644,0.1406254321,405.9259644,0.195896551,405.9259644,0.4061001837,
404.9998779,-0.0003856849216,404.9998779,0.1357455552,404.9998779,0.1881783456,404.9998779,0.393874526,
404.0736694,0.001078089699,404.0736694,0.1336042285,404.0736694,0.1838333011,404.0736694,0.384521693,
402.9928894,-3.727419607E-5,402.9928894,0.1276766211,402.9928894,0.1776125878,402.9928894,0.3717186749,
402.0663452,-2.919839062E-5,402.0663452,0.1261145473,402.0663452,0.1738013029,402.0663452,0.3654814959,
400.9852295,0.0006096799043,400.9852295,0.1211330667,400.9852295,0.1680952609,400.9852295,0.3545953333,
400.0584106,-2.38662069E-5,400.0584106,0.1180979088,400.0584106,0.1640223563,400.0584106,0.346686244,
398.9769287,0.000505121774,398.9769287,0.1163931265,398.9769287,0.1590175629,398.9769287,0.3395785391,
398.0498047,0.0001192212439,398.0498047,0.1127530336,398.0498047,0.1548823267,398.0498047,0.3296762705,
396.9679871,-0.0005688597448,396.9679871,0.1080737039,396.9679871,0.150417313,396.9679871,0.3226178586,
396.0405579,-0.00039820245,396.0405579,0.1063024849,396.0405579,0.1474250108,396.0405579,0.316218555,
394.958374,-0.0002050719922,394.958374,0.1043505892,394.958374,0.1436024755,394.958374,0.309109956,
394.0306702,-0.0001524416002,394.0306702,0.09968284518,394.0306702,0.1399673969,394.0306702,0.2999439836,
392.9481506,-0.0001846312516,392.9481506,0.09883777052,392.9481506,0.1357715279,392.9481506,0.293615967,
392.0201111,-4.591928155E-5,392.0201111,0.09522502869,392.0201111,0.1337644607,392.0201111,0.2885898352,
390.9372559,-0.0002620422456,390.9372559,0.0930480212,390.9372559,0.129571259,390.9372559,0.2806762457,
390.0089417,0.000248317403,390.0089417,0.09063392878,390.0089417,0.1267675757,390.0089417,0.2756434679,
388.9257507,0.0001431212149,388.9257507,0.08858418465,388.9257507,0.1229474321,388.9257507,0.2677485645,
387.9971619,-0.0003130038385,387.9971619,0.08602821082,387.9971619,0.1200728863,387.9971619,0.2620621324,
387.0684204,-0.0003443539026,387.0684204,0.0852355957,387.0684204,0.1177393124,387.0684204,0.2575971484,
385.9847107,-0.0002852214675,385.9847107,0.08302027732,385.9847107,0.1157183945,385.9847107,0.2541166544,
385.0556946,-6.569361722E-5,385.0556946,0.08164036274,385.0556946,0.1131033376,385.0556946,0.2479562759,
383.9716492,-0.0007085935795,383.9716492,0.07802398503,383.9716492,0.1098677516,383.9716492,0.2436521053,
383.0423279,6.073272743E-5,383.0423279,0.07872458547,383.0423279,0.1095737815,383.0423279,0.2400647402,
381.9579468,-0.0006386547466,381.9579468,0.07540352643,381.9579468,0.1065974906,381.9579468,0.2356876135,
381.0283508,-2.588519601E-5,381.0283508,0.0754917562,381.0283508,0.106753692,381.0283508,0.2347991467,
379.943634,-0.0002222518233,379.943634,0.07429174334,379.943634,0.1042253971,379.943634,0.2318594307,
379.0137634,0.0004385484499,379.0137634,0.07449880987,379.0137634,0.1034455076,379.0137634,0.2290690392,
377.9287109,0.0001900186908,377.9287109,0.07497458905,377.9287109,0.1030810103,377.9287109,0.2271710485,
376.9985352,-0.001306671533,376.9985352,0.07105714083,376.9985352,0.1007382125,376.9985352,0.2253059745,
376.0682373,-0.0009213907178,376.0682373,0.07187967747,376.0682373,0.1015534475,376.0682373,0.2236170173,
374.9827271,-0.0004378732992,374.9827271,0.07097056508,374.9827271,0.1002998948,374.9827271,0.2234193087,
374.052124,-0.0008351579309,374.052124,0.07075666636,374.052124,0.1006724387,374.052124,0.2228815109,
372.9662781,-0.0001813709823,372.9662781,0.07072611153,372.9662781,0.1001402959,372.9662781,0.2225413024,
372.0354004,-0.0001017717004,372.0354004,0.07224912196,372.0354004,0.1007577702,372.0354004,0.2232743204,
370.9492493,-0.001079654903,370.9492493,0.07081406564,370.9492493,0.09986414015,370.9492493,0.2219780535,
370.0180969,-0.0001983965049,370.0180969,0.07239683717,370.0180969,0.1012539044,370.0180969,0.2237942219,
368.9315796,0.0007442635833,368.9315796,0.07111973315,368.9315796,0.1015519425,368.9315796,0.2236550897,
368.0001831,-0.0001751091477,368.0001831,0.07253738493,368.0001831,0.1017392501,368.0001831,0.2240487784,
367.068634,0.0006309367018,367.068634,0.0739190504,367.068634,0.1027444676,367.068634,0.2251285017,
365.9816589,-0.001132999314,365.9816589,0.07176468521,365.9816589,0.1011473686,365.9816589,0.223320812,
365.0498352,-0.0001687954791,365.0498352,0.07254842669,365.0498352,0.1028459147,365.0498352,0.2244679034,
363.9625244,-0.0004436141753,363.9625244,0.07273995131,363.9625244,0.1018427238,363.9625244,0.2238266021,
363.030426,0.0003922718752,363.030426,0.07389964908,363.030426,0.1024021953,363.030426,0.222868979,
361.9428406,-0.0003068473889,361.9428406,0.0716034174,361.9428406,0.1016237363,361.9428406,0.2221425474,
361.0104675,-0.0002985696483,361.0104675,0.07197856158,361.0104675,0.101373896,361.0104675,0.2205666453,
359.9225159,-4.322741734E-5,359.9225159,0.07184329629,359.9225159,0.1009339914,359.9225159,0.219234243,
358.9898987,0.0001535050251,358.9898987,0.07147626579,358.9898987,0.1003543958,358.9898987,0.2176627666,
358.0571289,-0.0002055377117,358.0571289,0.07106247544,358.0571289,0.09942657501,358.0571289,0.2157045305,
356.96875,0.0004136735224,356.96875,0.06962697953,356.96875,0.09874816984,356.96875,0.2129874825,
356.0357056,-3.582470163E-5,356.0357056,0.06894619763,356.0357056,0.09713083506,356.0357056,0.2102855146,
354.9470215,-0.0011167333,354.9470215,0.06659778208,354.9470215,0.09538154304,354.9470215,0.2068197131,
354.0137024,-0.000521702983,354.0137024,0.06744969636,354.0137024,0.09490495175,354.0137024,0.2031442076,
352.9247131,0.0004199957766,352.9247131,0.06581029296,352.9247131,0.09324385971,352.9247131,0.1999181807,
351.9911194,0.0004236492387,351.9911194,0.06586053967,351.9911194,0.0925725773,351.9911194,0.1972630173,
351.0574341,-0.0001786799694,351.0574341,0.06348142028,351.0574341,0.09021304548,351.0574341,0.1941574961,
349.9679871,-0.0005827161949,349.9679871,0.06170022488,349.9679871,0.08824377507,349.9679871,0.1902482659,
349.0340271,-0.0001805429783,349.0340271,0.06223148108,349.0340271,0.08784396201,349.0340271,0.1884082556,
347.9442749,-6.377834507E-5,347.9442749,0.06100142375,347.9442749,0.08523468673,347.9442749,0.1831583083,
347.0100708,-0.0001707102929,347.0100708,0.05993079394,347.0100708,0.08456732333,347.0100708,0.1800164431,
346.0757141,-0.0009402986616,346.0757141,0.0574211441,346.0757141,0.081782341,346.0757141,0.1762389839,
344.9855347,-0.0005303901271,344.9855347,0.05703209341,344.9855347,0.08126187325,344.9855347,0.1735286117,
344.0509338,-4.602281479E-5,344.0509338,0.05543776602,344.0509338,0.07962863892,344.0509338,0.1696192473,
342.9604187,-0.0004658011021,342.9604187,0.05409003794,342.9604187,0.07764417678,342.9604187,0.1660955995,
342.0255737,8.773640729E-5,342.0255737,0.05363869667,342.0255737,0.07610224932,342.0255737,0.1625999361,
340.9347534,0.0005644218763,340.9347534,0.05352545157,340.9347534,0.07423384488,340.9347534,0.1593565941,
339.9996643,-0.0003526825167,339.9996643,0.05132512748,339.9996643,0.07350558788,339.9996643,0.1559729725,
339.0644226,0.0003126337833,339.0644226,0.05067157745,339.0644226,0.07202225178,339.0644226,0.1534816772,
337.973175,-0.001295986818,337.973175,0.049005799,337.973175,0.06944037974,337.973175,0.1493423432,
337.0377197,-0.0007623453275,337.0377197,0.04809426144,337.0377197,0.0683760047,337.0377197,0.1455116868,
335.946167,0.000358850084,335.946167,0.0485492833,335.946167,0.06784015149,335.946167,0.1437720209,
335.010437,-0.0002752876608,335.010437,0.04688754305,335.010437,0.06669906527,335.010437,0.141093418,
334.074585,-0.001046446967,334.074585,0.04522871599,334.074585,0.064166978,334.074585,0.1379473954,
332.9826355,-0.0003932368709,332.9826355,0.04433693364,332.9826355,0.06310387701,332.9826355,0.1338057071,
332.0465393,-0.0003424398601,332.0465393,0.04417539015,332.0465393,0.06279847771,332.0465393,0.1317352802,
330.9542847,-0.0005422829418,330.9542847,0.04246192425,330.9542847,0.06189639494,330.9542847,0.1287490129,
330.0179138,-0.0003171943245,330.0179138,0.04236134514,330.0179138,0.05954673141,330.0179138,0.1270761639,
328.9253845,-0.0003827882756,328.9253845,0.04089914635,328.9253845,0.05839805678,328.9253845,0.1237371489,
327.9888,-0.0001686919713,327.9888,0.04051088542,327.9888,0.05723584816,327.9888,0.1213416532,
327.0520935,-0.0002432082256,327.0520935,0.03947266936,327.0520935,0.0561870262,327.0520935,0.1190516204,
325.9591064,0.0003824005253,325.9591064,0.03906871378,325.9591064,0.05572384968,325.9591064,0.1187944487,
325.0221558,-6.791947089E-5,325.0221558,0.03728988022,325.0221558,0.05429036543,325.0221558,0.1157422885,
323.928894,0.0001068704223,323.928894,0.03818278015,323.928894,0.05363555998,323.928894,0.1148077771,
322.9916992,-0.0006402573199,322.9916992,0.03722196072,322.9916992,0.05249474198,322.9916992,0.1116768345,
322.0544128,-0.0003733222547,322.0544128,0.03743164241,322.0544128,0.05239417776,322.0544128,0.1114884317,
320.9607544,0.0003012618108,320.9607544,0.03518199921,320.9607544,0.0519301258,320.9607544,0.1094361469,
320.0231934,-5.673833584E-5,320.0231934,0.03683384508,320.0231934,0.05139528587,320.0231934,0.1085442379,
318.9292603,-0.0002382926032,318.9292603,0.03502971679,318.9292603,0.05077299476,318.9292603,0.1084542423,
317.9914551,-0.0002612143871,317.9914551,0.03515148908,317.9914551,0.05048617348,317.9914551,0.107550554,
317.0535583,5.356137262E-5,317.0535583,0.03569674864,317.0535583,0.05098853633,317.0535583,0.1080992371,
315.959198,-0.0002541258582,315.959198,0.03522773087,315.959198,0.05073537678,315.959198,0.1073729545,
315.0210876,3.468733667E-6,315.0210876,0.03516294062,315.0210876,0.05084987357,315.0210876,0.1086017042,
313.9264526,0.0001427845855,313.9264526,0.03675273061,313.9264526,0.0519602336,313.9264526,0.1102751195,
312.9880676,0.0003721925896,312.9880676,0.03723809496,312.9880676,0.05302242562,312.9880676,0.1120087802,
312.0495911,0.0002261728223,312.0495911,0.03795369714,312.0495911,0.05382814631,312.0495911,0.1146179438,
310.9545593,4.934145909E-5,310.9545593,0.03953659907,310.9545593,0.05557101592,310.9545593,0.1183651388,
310.0158386,6.663559179E-5,310.0158386,0.04034638405,310.0158386,0.05751977861,310.0158386,0.121198386,
309.0770264,0.0002627961803,309.0770264,0.04243184254,309.0770264,0.06048952416,309.0770264,0.1269985735,
307.9815979,-0.0001382090704,307.9815979,0.0454756394,307.9815979,0.06493398547,307.9815979,0.1358619928,
307.0425415,0.0002578489948,307.0425415,0.04848470539,307.0425415,0.06893721968,307.0425415,0.1443507075,
305.9468689,4.921201253E-5,305.9468689,0.05251130834,305.9468689,0.07521482557,305.9468689,0.1590103656,
305.0075684,-0.0004564403207,305.0075684,0.05706305802,305.0075684,0.0809969008,305.0075684,0.1698208898,
304.0681763,0.0004694627132,304.0681763,0.06376029551,304.0681763,0.09109863639,304.0681763,0.1883805692,
302.9721069,6.197542825E-5,302.9721069,0.07124257088,302.9721069,0.1008190811,302.9721069,0.2125147581,
302.0325012,8.294656436E-5,302.0325012,0.07759121805,302.0325012,0.1110097915,302.0325012,0.2298696786,
300.9361267,-0.0003440435394,300.9361267,0.08780058473,300.9361267,0.1240153462,300.9361267,0.2618789673,
299.9963074,-0.0005841121892,299.9963074,0.09459672868,299.9963074,0.1322992146,299.9963074,0.2786285281,
299.056366,0.0001712694502,299.056366,0.1051394269,299.056366,0.1488000751,299.056366,0.310208708,
297.9596252,-0.0002001559478,297.9596252,0.119197309,297.9596252,0.1676374078,297.9596252,0.3536866903,
297.0194397,0.0003443940077,297.0194397,0.1345708668,297.0194397,0.1892966479,297.0194397,0.4020631313,
295.9224548,0.0004383152409,295.9224548,0.1550175399,295.9224548,0.2160228342,295.9224548,0.4579270184,
294.9820557,0.0004624660069,294.9820557,0.1693591923,294.9820557,0.2391785085,294.9820557,0.5064227581,
294.0415649,0.0004480064672,294.0415649,0.1918728054,294.0415649,0.2650289237,294.0415649,0.5554805994,
292.9442139,-7.661570999E-5,292.9442139,0.2097269297,292.9442139,0.2925617695,292.9442139,0.6148935556,
292.003479,-0.0005920225522,292.003479,0.218794167,292.003479,0.3087470829,292.003479,0.6520326138,
291.0626831,-0.0003823744482,291.0626831,0.2298194617,291.0626831,0.3199978471,291.0626831,0.6805360317,
289.9649353,-2.702411075E-5,289.9649353,0.2432988584,289.9649353,0.3443293273,289.9649353,0.7271115184,
289.0238953,-0.0004134608898,289.0238953,0.2612029612,289.0238953,0.3670689762,289.0238953,0.7859739065,
287.9259033,0.0002482655982,287.9259033,0.2845021784,287.9259033,0.3966762424,287.9259033,0.8437998891,
286.9846497,0.0004016252351,286.9846497,0.3044712842,286.9846497,0.4273638725,286.9846497,0.8988628387,
286.0433044,-0.0001252182556,286.0433044,0.3151720762,286.0433044,0.4393396676,286.0433044,0.9349430203,
284.9449463,2.065749322E-5,284.9449463,0.3250577748,284.9449463,0.4544343352,284.9449463,0.9664873481,
284.0033569,0.0001807475492,284.0033569,0.3302700818,284.0033569,0.4611712098,284.0033569,0.980312407,
283.0617065,-9.250659787E-5,283.0617065,0.3355632126,283.0617065,0.4708149433,283.0617065,0.994243443,
281.9629822,0.0001368547819,281.9629822,0.3415100276,281.9629822,0.4771657884,281.9629822,1.012186527,
281.0211182,0.0004112120077,281.0211182,0.3444526792,281.0211182,0.4821386337,281.0211182,1.021742582,
279.9221191,0.0005409393343,279.9221191,0.347635448,279.9221191,0.4872791469,279.9221191,1.031987309,
278.9800415,-0.0001640860428,278.9800415,0.3503608704,278.9800415,0.487585932,278.9800415,1.037098765,
278.0378723,0.000682294427,278.0378723,0.349371016,278.0378723,0.4886396229,278.0378723,1.038133264,
276.9385376,0.0005314014852,276.9385376,0.3498967886,276.9385376,0.4874407947,276.9385376,1.033082962,
275.9961548,0.0005372848245,275.9961548,0.348033011,275.9961548,0.484110564,275.9961548,1.029061317,
275.0536804,0.0001280508732,275.0536804,0.3454834819,275.0536804,0.4806454182,275.0536804,1.021502972,
273.9539795,-0.000281341112,273.9539795,0.3392591476,273.9539795,0.4741081893,273.9539795,1.009342432,
273.0112915,3.820937127E-5,273.0112915,0.3375772536,273.0112915,0.4697250724,273.0112915,0.9978215694,
272.068512,0.0003633838787,272.068512,0.3358581066,272.068512,0.4658352435,272.068512,0.9905561805,
270.9684753,-0.000221165159,270.9684753,0.332573384,270.9684753,0.462111026,270.9684753,0.9789751768,
270.0254822,0.001094412757,270.0254822,0.3267077804,270.0254822,0.4562274516,270.0254822,0.9684766531,
268.9252014,0.001006369013,268.9252014,0.3191231191,268.9252014,0.4456965029,268.9252014,0.9442285895,
267.9820251,0.0008691362455,267.9820251,0.3158563972,267.9820251,0.4394413233,267.9820251,0.9313098788,
267.0387573,-0.0004415453877,267.0387573,0.3114590347,267.0387573,0.43257007,267.0387573,0.9200442433,
265.9381409,0.000139962096,265.9381409,0.305077523,265.9381409,0.4239099324,265.9381409,0.9011390805,
264.9946594,0.001144994749,264.9946594,0.2979894876,264.9946594,0.415152818,264.9946594,0.8774011731,
264.0510864,0.0020679757,264.0510864,0.2903265953,264.0510864,0.4050627351,264.0510864,0.8604232073,
262.9501343,0.0006451171939,262.9501343,0.2862476408,262.9501343,0.397434622,262.9501343,0.8451831937,
262.0063477,-5.720422268E-5,262.0063477,0.2833606005,262.0063477,0.393389225,262.0063477,0.8359397054,
261.0625,0.0006250002771,261.0625,0.2805761099,261.0625,0.3911292255,261.0625,0.8262118697,
259.9612122,0.0008775142487,259.9612122,0.2759931982,259.9612122,0.3824347556,259.9612122,0.8126772642,
259.0171509,0.002284324728,259.0171509,0.2656455338,259.0171509,0.3689256012,259.0171509,0.7842597961,
258.072998,0.0007357585127,258.072998,0.2566923201,258.072998,0.3598659933,258.072998,0.7612364292,
256.9713745,0.0009724329575,256.9713745,0.2505972981,256.9713745,0.3514330983,256.9713745,0.7421220541,
256.0270386,-0.001680574613,256.0270386,0.2477433681,256.0270386,0.3444091678,256.0270386,0.7334129214,
254.9252014,0.0006592980935,254.9252014,0.2455929965,254.9252014,0.3433232605,254.9252014,0.7259613276,
253.9806671,0.0007900071796,253.9806671,0.243081972,253.9806671,0.338334471,253.9806671,0.7178197503,
253.0360413,0.001763562788,253.0360413,0.2399130166,253.0360413,0.3362624049,253.0360413,0.7097622156,
251.9338837,0.0005496997619,251.9338837,0.2389832437,251.9338837,0.3313763738,251.9338837,0.7038223147,
250.9890747,0.0003157682659,250.9890747,0.2405674905,250.9890747,0.3331788778,250.9890747,0.7058736086,
250.0441742,0.0004432644928,250.0441742,0.2429503798,250.0441742,0.3386335075,250.0441742,0.7193229795,
248.947998,-6.263952673E-5,248.947998,0.2479683757,248.947998,0.3466961086,248.947998,0.736471653,
248.0085449,0.0006854833919,248.0085449,0.2557684481,248.0085449,0.3564669192,248.0085449,0.7585499287,
247.0690155,-0.0002090047783,247.0690155,0.2690965831,247.0690155,0.3732341826,247.0690155,0.7945522666,
245.9727936,0.0008266521618,245.9727936,0.293027252,245.9727936,0.4006956518,245.9727936,0.8680952191,
245.0330658,-0.0005660160095,245.0330658,0.3098827004,245.0330658,0.4353028834,245.0330658,0.9275929332,
243.9366302,0.0005771485739,243.9366302,0.3503058851,243.9366302,0.4813646376,243.9366302,1.020457625,
242.9967346,-6.269128789E-5,242.9967346,0.3840368688,242.9967346,0.5357090831,242.9967346,1.152769327,
242.0567474,-5.280416372E-5,242.0567474,0.4330556691,242.0567474,0.5963852406,242.0567474,1.279571772,
240.9600067,0.0006566796219,240.9600067,0.5100365281,240.9600067,0.6980777383,240.9600067,1.450826287,
240.0198364,-0.001287727966,240.0198364,0.577991724,240.0198364,0.8154737949,240.0198364,1.709529638,
238.9228821,-0.0007417757297,238.9228821,0.7217864394,238.9228821,0.9845099449,238.9228821,2.105300665,
237.9825439,-0.0007142791874,237.9825439,0.8363691568,237.9825439,1.158900738,237.9825439,2.389127493,
237.0421143,0.001041475451,237.0421143,0.9659660459,237.0421143,1.323067307,237.0421143,2.797397852,
235.9448547,-0.0004751099332,235.9448547,1.142923951,235.9448547,1.559796333,235.9448547,3.256666899,
235.0042572,5.470049655E-5,235.0042572,1.35002017,235.0042572,1.825182676,235.0042572,3.446611881,
234.0635834,-4.353801705E-5,234.0635834,1.516821384,234.0635834,2.107085466,234.0635834,10,
232.9660187,0.0004079473147,232.9660187,1.80435884,232.9660187,2.347537756,232.9660187,10,
232.025177,0.0005354706082,232.025177,1.785254478,232.025177,2.483722925,232.025177,2.720875263,
230.9274139,0.00116139825,230.9274139,1.988692164,230.9274139,2.710810184,230.9274139,10,
229.9863892,0.001463778783,229.9863892,1.970606089,229.9863892,3.032180071,229.9863892,10,
229.0452728,0.002058768412,229.0452728,3.032928705,229.0452728,10,229.0452728,10,
227.9472198,-0.007076261099,227.9472198,3.359346628,227.9472198,10,227.9472198,10,
227.0059509,-0.001079345006,227.0059509,3.229530096,227.0059509,10,227.0059509,10,
226.0646057,-0.004139719997,226.0646057,3.120906591,226.0646057,10,226.0646057,10,
224.9662628,0.002777652815,224.9662628,3.448290348,224.9662628,10,224.9662628,10,
224.0247345,0.006859173998,224.0247345,3.410416126,224.0247345,2.981774569,224.0247345,10,
222.9261932,0.01793475449,222.9261932,2.712536097,222.9261932,10,222.9261932,10,
221.9845123,0.007053981069,221.9845123,2.155046701,221.9845123,10,221.9845123,10,
221.0427551,0.002443012781,221.0427551,2.081856489,221.0427551,2.758092642,221.0427551,10,
219.943924,0.009419484064,219.943924,2.118664503,219.943924,10,219.943924,10,
219.0019989,0.01537723932,219.0019989,1.590781808,219.0019989,2.538048506,219.0019989,2.838474035,
218.0599976,0.008009447716,218.0599976,1.317153692,218.0599976,2.092570782,218.0599976,1.846600533,
216.960907,-0.01318545267,216.960907,1.438336968,216.960907,1.74690032,216.960907,10,
216.0187378,-0.02751337364,216.0187378,10,216.0187378,10,216.0187378,10,
215.0765076,0.008770587854,215.0765076,1.364176035,215.0765076,1.475822449,215.0765076,10,
213.9771271,-0.04365070537,213.9771271,0.459946543,213.9771271,0.9416003823,213.9771271,1.456607223,
213.034729,-0.01393148769,213.034729,0.7079616785,213.034729,1.998244286,213.034729,10,
211.9351807,0.02320186794,211.9351807,0.4663825333,211.9351807,1.339301109,211.9351807,1.517906427,
210.9926147,0.2577231824,210.9926147,10,210.9926147,10,210.9926147,10,
210.0499878,0.1751184314,210.0499878,1.241460443,210.0499878,0.9346579909,210.0499878,0.8637852669,
208.9501648,0.01204913482,208.9501648,0.6666994691,208.9501648,1.226292253,208.9501648,10,
208.0073853,0.2534573674,208.0073853,0.2208671272,208.0073853,10,208.0073853,10,
207.0645294,0.1193990335,207.0645294,0.4832578599,207.0645294,0.4575038552,207.0645294,10,
205.9644318,0.07215806097,205.9644318,10,205.9644318,10,205.9644318,10,
205.0214233,10,205.0214233,10,205.0214233,10,205.0214233,-0.8494375348,
204.0783539,-0.0676714927,204.0783539,0.02424095012,204.0783539,0.2352124602,204.0783539,0.6487080455,
202.9779968,-0.03557793424,202.9779968,-0.03259184584,202.9779968,0.4052205086,202.9779968,10,
202.0347748,-0.05206077918,202.0347748,10,202.0347748,0.06865046173,202.0347748,1.358214021,
200.9342499,-0.05899168178,200.9342499,-0.06557703763,200.9342499,0.1885279566,200.9342499,10,
199.9907532,0.3528822958,199.9907532,0.2116736323,199.9907532,0.5614990592,199.9907532,0.2820661366,

BLANK,
BLANK
Collection Time: 04/11/2019 10:52:41
Operator Name  :
Scan Software Version: 3.00(339)
Parameter List :
Instrument                        Cary 50
Instrument Version                3.00
Start (nm)                        800.0
Stop (nm)                         200.0
X Mode                            Nanometers
Y Mode                            Abs
UV-Vis Scan Rate (nm/min)         4800.00
UV-Vis Data Interval (nm)         1.00
UV-Vis Ave. Time (sec)            0.0125
Beam Mode                         Dual Beam
Baseline Correction               On
Baseline Type                     Baseline correction
Baseline File Name
Baseline Std Ref File Name
Cycle Mode                        Off
Comments
Method Log     :
Method Name    :
Date/Time stamp: 30/10/2019 16:12:21
Method Modifications:
Common Interval nm Changed: 04/11/2019 10:52:25, Old:     5.00, New:     1.00
Baseline Correction Changed: 04/11/2019 10:52:25, Old:0, New:1
Storage Changed: 04/11/2019 10:52:25, Old:1, New:0
End Method Modifications
<Current Wavelength> , 203.0

BM3_wthEME_2IN1000,
BM3_wthEME_2IN1000
Collection Time: 04/11/2019 10:56:30
Operator Name  :
Scan Software Version: 3.00(339)
Parameter List :
Instrument                        Cary 50
Instrument Version                3.00
Start (nm)                        800.0
Stop (nm)                         200.0
X Mode                            Nanometers
Y Mode                            Abs
UV-Vis Scan Rate (nm/min)         4800.00
UV-Vis Data Interval (nm)         1.00
UV-Vis Ave. Time (sec)            0.0125
Beam Mode                         Dual Beam
Baseline Correction               On
Baseline Type                     Baseline correction
Baseline File Name
Baseline Std Ref File Name
Cycle Mode                        Off
Comments
Method Log     :
Method Name    :
Date/Time stamp: 30/10/2019 16:12:21
Method Modifications:
Common Interval nm Changed: 04/11/2019 10:52:25, Old:     5.00, New:     1.00
Baseline Correction Changed: 04/11/2019 10:52:25, Old:0, New:1
Storage Changed: 04/11/2019 10:52:25, Old:1, New:0
End Method Modifications
<Current Wavelength> , 203.0

BM3_wtheme_5in1000,
BM3_wtheme_5in1000
Collection Time: 04/11/2019 10:57:03
Operator Name  :
Scan Software Version: 3.00(339)
Parameter List :
Instrument                        Cary 50
Instrument Version                3.00
Start (nm)                        800.0
Stop (nm)                         200.0
X Mode                            Nanometers
Y Mode                            Abs
UV-Vis Scan Rate (nm/min)         4800.00
UV-Vis Data Interval (nm)         1.00
UV-Vis Ave. Time (sec)            0.0125
Beam Mode                         Dual Beam
Baseline Correction               On
Baseline Type                     Baseline correction
Baseline File Name
Baseline Std Ref File Name
Cycle Mode                        Off
Comments
Method Log     :
Method Name    :
Date/Time stamp: 30/10/2019 16:12:21
Method Modifications:
Common Interval nm Changed: 04/11/2019 10:52:25, Old:     5.00, New:     1.00
Baseline Correction Changed: 04/11/2019 10:52:25, Old:0, New:1
Storage Changed: 04/11/2019 10:52:25, Old:1, New:0
End Method Modifications
<Current Wavelength> , 203.0

BM3_wtheme_10in1000,
BM3_wtheme_10in1000
Collection Time: 04/11/2019 10:57:28
Operator Name  :
Scan Software Version: 3.00(339)
Parameter List :
Instrument                        Cary 50
Instrument Version                3.00
Start (nm)                        800.0
Stop (nm)                         200.0
X Mode                            Nanometers
Y Mode                            Abs
UV-Vis Scan Rate (nm/min)         4800.00
UV-Vis Data Interval (nm)         1.00
UV-Vis Ave. Time (sec)            0.0125
Beam Mode                         Dual Beam
Baseline Correction               On
Baseline Type                     Baseline correction
Baseline File Name
Baseline Std Ref File Name
Cycle Mode                        Off
Comments
Method Log     :
Method Name    :
Date/Time stamp: 30/10/2019 16:12:21
Method Modifications:
Common Interval nm Changed: 04/11/2019 10:52:25, Old:     5.00, New:     1.00
Baseline Correction Changed: 04/11/2019 10:52:25, Old:0, New:1
Storage Changed: 04/11/2019 10:52:25, Old:1, New:0
End Method Modifications
<Current Wavelength> , 203.0

