blank,,bm3-wt-heme-tgt-10uM,,bm3-wt-heme-tgt-15uM,,bm3-wt-heme-tgt-20uM,,
Wavelength (nm),Abs,Wavelength (nm),Abs,Wavelength (nm),Abs,Wavelength (nm),Abs,
799.9393921,0.000473246153,799.9393921,0.009368114173,799.9393921,0.01587619819,799.9393921,0.02536528185,
798.9679565,-0.001904236269,798.9679565,0.008903576061,798.9679565,0.01530319825,798.9679565,0.0241589509,
797.9960938,9.868852067E-5,797.9960938,0.01105684042,797.9960938,0.01580872945,797.9960938,0.02714397945,
797.0239258,0.0009830181953,797.0239258,0.0120776929,797.0239258,0.01735838689,797.0239258,0.02845249325,
796.0513306,0.0006728831213,796.0513306,0.01102423389,796.0513306,0.01487207692,796.0513306,0.02450234815,
794.9393311,0.002192344982,794.9393311,0.01018755417,794.9393311,0.016179787,794.9393311,0.0258014854,
793.9660034,-0.001049235929,793.9660034,0.008633704856,793.9660034,0.01418733224,793.9660034,0.02580524981,
792.9922485,-0.0001284789469,792.9922485,0.01140661072,792.9922485,0.01592759043,792.9922485,0.02635558881,
792.0180664,0.0006693571922,792.0180664,0.01151972823,792.0180664,0.01630721614,792.0180664,0.02699115686,
791.0435791,-0.001472328673,791.0435791,0.01003419701,791.0435791,0.01485024486,791.0435791,0.02597670071,
790.0687256,-0.000356665696,790.0687256,0.009690559469,790.0687256,0.01583420672,790.0687256,0.02556275204,
788.9541016,-0.0004499238566,788.9541016,0.01035350468,788.9541016,0.01601065509,788.9541016,0.02711391822,
787.9784546,-0.0008843473624,787.9784546,0.01071592141,787.9784546,0.01591531932,787.9784546,0.02671625465,
787.0023804,0.0007995247142,787.0023804,0.009890824556,787.0023804,0.01582220569,787.0023804,0.02731620893,
786.026001,-0.0009513021214,786.026001,0.01045635063,786.026001,0.01650655083,786.026001,0.03021262959,
785.0491943,-1.8430419E-5,785.0491943,0.01061569341,785.0491943,0.01615068875,785.0491943,0.0282454472,
783.9324341,-0.0007084902027,783.9324341,0.00869391486,783.9324341,0.01515410934,783.9324341,0.02598129027,
782.954834,-0.0003625110839,782.954834,0.01204799023,782.954834,0.01624105126,782.954834,0.02816235647,
781.9768677,0.00132975087,781.9768677,0.0111955516,781.9768677,0.0160683766,781.9768677,0.02825423144,
780.9985352,-0.0003748223535,780.9985352,0.01178102568,780.9985352,0.01822779886,780.9985352,0.02802306414,
780.0198364,0.0004114970507,780.0198364,0.01238452364,780.0198364,0.0186700765,780.0198364,0.02876862884,
779.0408325,0.0006289665471,779.0408325,0.01066232938,779.0408325,0.01719062775,779.0408325,0.02775837854,
778.0614014,-0.001850574161,778.0614014,0.0107828686,778.0614014,0.01726676896,778.0614014,0.02858802676,
776.9415894,-0.001515770913,776.9415894,0.01035180781,776.9415894,0.01622834057,776.9415894,0.02854268812,
775.9613647,-0.002134325681,775.9613647,0.009140806273,775.9613647,0.01690799743,775.9613647,0.02891341969,
774.980835,0.0001144051639,774.980835,0.01247311942,774.980835,0.01663305424,774.980835,0.03057279252,
773.9998779,-0.001208486035,773.9998779,0.01138731837,773.9998779,0.01830261014,773.9998779,0.0305835139,
773.0185547,0.001255703974,773.0185547,0.01343902107,773.0185547,0.01856650971,773.0185547,0.03103302792,
772.0368652,-0.0001839067409,772.0368652,0.01181424782,772.0368652,0.01842953078,772.0368652,0.0296937488,
771.0548706,-0.000892923912,771.0548706,0.0120836813,771.0548706,0.01789345406,771.0548706,0.03019287251,
769.9320679,-0.0007470474229,769.9320679,0.0129576819,769.9320679,0.01786356606,769.9320679,0.03008269332,
768.9492798,-0.0009776989464,768.9492798,0.01254236326,768.9492798,0.01950359158,768.9492798,0.02963657118,
767.9660645,-0.0004644047294,767.9660645,0.01206379943,767.9660645,0.02004236542,767.9660645,0.03278695419,
766.9825439,-0.0004628015158,766.9825439,0.01007096842,766.9825439,0.0192042999,766.9825439,0.03124274313,
765.9986572,0.002220496302,765.9986572,0.01406472083,765.9986572,0.01981270872,765.9986572,0.03318113834,
765.0143433,-0.0001916174369,765.0143433,0.01308080833,765.0143433,0.01994863525,765.0143433,0.03095246106,
764.0297241,0.001110554789,764.0297241,0.01374943368,764.0297241,0.02188009024,764.0297241,0.03344227001,
763.0447388,-0.001179005485,763.0447388,0.01109781489,763.0447388,0.01969592087,763.0447388,0.03006055392,
762.0593872,0.0006722609396,762.0593872,0.01249712333,762.0593872,0.02086703293,762.0593872,0.03094242513,
760.9328613,-0.0009952097898,760.9328613,0.01420792658,760.9328613,0.02197314985,760.9328613,0.03258695453,
759.9467163,-0.002557958709,759.9467163,0.01088653319,759.9467163,0.01857275143,759.9467163,0.03144980595,
758.9602661,0.0003542644845,758.9602661,0.01496316493,758.9602661,0.02135009877,758.9602661,0.03325787187,
757.9734497,-0.001258304343,757.9734497,0.01087989751,757.9734497,0.01990876906,757.9734497,0.03048934042,
756.9862671,-0.0007092138403,756.9862671,0.01206513029,756.9862671,0.02224427462,756.9862671,0.03182932362,
755.9987183,-0.000754489738,755.9987183,0.01234396081,755.9987183,0.02042424865,755.9987183,0.03164744377,
755.0108032,0.001633911626,755.0108032,0.01541741565,755.0108032,0.02311608009,755.0108032,0.03418804705,
754.022522,-2.609227158E-5,754.022522,0.01640406251,754.022522,0.02367395535,754.022522,0.03506058455,
753.0339355,-0.00167505641,753.0339355,0.0129863536,753.0339355,0.02070011199,753.0339355,0.032421913,
752.0449219,0.001526560867,752.0449219,0.01734723337,752.0449219,0.02297512069,752.0449219,0.03437718749,
751.055603,-0.0004305807524,751.055603,0.01490459777,751.055603,0.02233231813,751.055603,0.03341157362,
750.065918,0.001272578957,750.065918,0.01431816444,750.065918,0.02315331995,750.065918,0.03389567882,
748.9344482,0.001721796812,748.9344482,0.01505620126,748.9344482,0.02290029079,748.9344482,0.03484024107,
747.9439697,0.001465077396,747.9439697,0.01476973295,747.9439697,0.02199281007,747.9439697,0.03623858467,
746.953186,0.001221540733,746.953186,0.01494676713,746.953186,0.02352442406,746.953186,0.03688008711,
745.9620361,0.0001554471673,745.9620361,0.01477621403,745.9620361,0.02366936207,745.9620361,0.03549917042,
744.9705811,-6.895474507E-5,744.9705811,0.01443094574,744.9705811,0.02421855927,744.9705811,0.03540984914,
743.9786987,-0.001246947329,743.9786987,0.01442653034,743.9786987,0.02287701517,743.9786987,0.03491836041,
742.9865112,-0.002216025721,742.9865112,0.01523549762,742.9865112,0.02357943542,742.9865112,0.03524808213,
741.9939575,-0.001327420818,741.9939575,0.01500724163,741.9939575,0.02216297947,741.9939575,0.03617215529,
741.0010376,-0.0007656012313,741.0010376,0.01437079161,741.0010376,0.02507643215,741.0010376,0.03625563905,
740.0078125,-0.0006962917978,740.0078125,0.01517828833,740.0078125,0.02290550247,740.0078125,0.03645429388,
739.0142212,-0.001484608511,739.0142212,0.01470993366,739.0142212,0.02347283438,739.0142212,0.03720379993,
738.0202637,-0.001121845562,738.0202637,0.01436008979,738.0202637,0.02221899107,738.0202637,0.03753878921,
737.0259399,-0.0005645682686,737.0259399,0.01515333168,737.0259399,0.02502690628,737.0259399,0.03685562685,
736.031311,-0.0003124347713,736.031311,0.01432070602,736.031311,0.02477807179,736.031311,0.03867217898,
735.0363159,-0.001706566196,735.0363159,0.01462599356,735.0363159,0.02529566549,735.0363159,0.03755925223,
734.0410156,-0.0007411555271,734.0410156,0.01460926142,734.0410156,0.02486218885,734.0410156,0.03888779879,
733.0452881,-0.001119263587,733.0452881,0.0158970058,733.0452881,0.02478623949,733.0452881,0.03874414414,
732.0492554,-1.056134624E-5,732.0492554,0.01726092398,732.0492554,0.0256756898,732.0492554,0.03889006376,
731.0529175,-0.0001446267124,731.0529175,0.01722189598,731.0529175,0.02755792253,731.0529175,0.03893632442,
730.0561523,0.0002133786766,730.0561523,0.0177588705,730.0561523,0.025571784,730.0561523,0.03898480162,
729.0591431,0.001178814564,729.0591431,0.01654702052,729.0591431,0.02627637982,729.0591431,0.04042672366,
728.0617065,0.0002631329116,728.0617065,0.01651058346,728.0617065,0.02480282076,728.0617065,0.0399116762,
727.0639648,-0.001405763789,727.0639648,0.01438612398,727.0639648,0.02424223535,727.0639648,0.03864719346,
726.0658569,-0.001170537784,726.0658569,0.01685818285,726.0658569,0.0256342236,726.0658569,0.04024171829,
725.0674438,-0.001874493551,725.0674438,0.01579460874,725.0674438,0.02522915974,725.0674438,0.03940497711,
724.0686646,-0.0003206605033,724.0686646,0.01565909013,724.0686646,0.02537132055,724.0686646,0.04021979496,
723.069519,0.0002557250846,723.069519,0.01641285233,723.069519,0.02608205006,723.069519,0.04019270465,
722.0700684,-0.001534085488,722.0700684,0.01659330167,722.0700684,0.02505457588,722.0700684,0.04030425847,
721.0702515,0.0004650832852,721.0702515,0.01722561382,721.0702515,0.02699250728,721.0702515,0.04240920767,
720.0701294,-0.0008324709488,720.0701294,0.01735731028,720.0701294,0.02599445358,720.0701294,0.0404025726,
719.0696411,-0.0006273848703,719.0696411,0.01724169217,719.0696411,0.0274173338,719.0696411,0.04130990431,
718.0687866,-0.001233731513,718.0687866,0.01787370816,718.0687866,0.02712615207,718.0687866,0.04117714614,
717.067627,0.001451960998,717.067627,0.01771985181,717.067627,0.02857085876,717.067627,0.04192727059,
716.0661011,-0.0005005014245,716.0661011,0.01669693738,716.0661011,0.02728754096,716.0661011,0.04114800319,
715.06427,-0.0005464712158,715.06427,0.01786974259,715.06427,0.02712190896,715.06427,0.04277634621,
714.0621338,0.0004336769925,714.0621338,0.01729785465,714.0621338,0.02644829266,714.0621338,0.0434143953,
713.0595703,-0.0001597905648,713.0595703,0.01832996309,713.0595703,0.0277182851,713.0595703,0.0428423956,
712.0567627,-0.0005230990937,712.0567627,0.01733653806,712.0567627,0.02649762295,712.0567627,0.04277488962,
711.0535889,0.0001903812517,711.0535889,0.01801979542,711.0535889,0.02804542892,711.0535889,0.04275637865,
710.0500488,0.0004262403527,710.0500488,0.01915833354,710.0500488,0.02899039909,710.0500488,0.04433696344,
709.0462036,0.000142888166,709.0462036,0.01748435758,709.0462036,0.02698239684,709.0462036,0.0430069007,
708.0419922,-5.720422268E-5,708.0419922,0.01721607894,708.0419922,0.02857517079,708.0419922,0.04240515456,
707.0374756,0.0003538758901,707.0374756,0.0194137115,707.0374756,0.02913681231,707.0374756,0.0440902859,
706.0325928,-0.0003147628158,706.0325928,0.01830066741,706.0325928,0.02853986807,706.0325928,0.04483200237,
705.0274048,-0.0008408418507,705.0274048,0.01890605316,705.0274048,0.02950533666,705.0274048,0.04521728307,
704.0219116,-0.0002472958877,704.0219116,0.01894601621,704.0219116,0.02947527729,704.0219116,0.04500579089,
703.0160522,-0.0006376208039,703.0160522,0.01845745742,703.0160522,0.0282479059,703.0160522,0.04377439618,
702.0098267,0.0003779183317,702.0098267,0.02033914253,702.0098267,0.02966650389,702.0098267,0.04558944702,
701.0032959,0.0007676793612,701.0032959,0.01963113435,701.0032959,0.03083161078,701.0032959,0.04541852698,
699.99646,0.0009630672866,699.99646,0.02053873613,699.99646,0.03047609329,699.99646,0.04527936503,
698.9893188,8.701145271E-5,698.9893188,0.01948331296,698.9893188,0.0300416071,698.9893188,0.04557616636,
697.9818115,0.0002224174095,697.9818115,0.01998080686,697.9818115,0.03057820722,697.9818115,0.04636932909,
696.973938,0.0001247882901,696.973938,0.02044139802,696.973938,0.03037336655,696.973938,0.04578246921,
695.9657593,-0.0002941720304,695.9657593,0.0196143426,695.9657593,0.03035998531,695.9657593,0.04563372582,
694.9572754,0.000345145294,694.9572754,0.02041133493,694.9572754,0.03087302111,694.9572754,0.04735429212,
693.9484253,-0.0001188003444,693.9484253,0.02113629878,693.9484253,0.03100389056,693.9484253,0.0471316576,
692.93927,-0.000579769141,692.93927,0.02048500255,692.93927,0.03271284327,692.93927,0.04717066884,
691.9298096,-0.001155667356,691.9298096,0.01999126934,691.9298096,0.03110777028,691.9298096,0.0478763096,
691.06427,-0.0005555715179,691.06427,0.01998278499,691.06427,0.03000959754,691.06427,0.04682926461,
690.0541992,0.0007703243755,690.0541992,0.02076429687,690.0541992,0.03158037737,690.0541992,0.04931724817,
689.0437622,-0.001340995077,689.0437622,0.02117717639,689.0437622,0.03175738081,689.0437622,0.04777117446,
688.0330811,-0.0001462311047,688.0330811,0.02129419893,688.0330811,0.03289338201,688.0330811,0.05093631521,
687.0219727,-0.0005581568112,687.0219727,0.02188300341,687.0219727,0.03247131035,687.0219727,0.04987943918,
686.0106201,-0.0008869823068,686.0106201,0.02113431506,686.0106201,0.03199572861,686.0106201,0.049418699,
684.9989014,0.0005232375115,684.9989014,0.02223781869,684.9989014,0.0329320021,684.9989014,0.05094152689,
683.9868774,0.0001139908782,683.9868774,0.02248522826,683.9868774,0.03372322768,683.9868774,0.05154071003,
682.9744873,-0.0002286164672,682.9744873,0.02222907171,682.9744873,0.03439520299,682.9744873,0.05183117837,
681.961853,-0.0003639077477,681.961853,0.02285453305,681.961853,0.034141168,681.961853,0.05256202444,
680.9488525,-0.0005554681411,680.9488525,0.02180604823,680.9488525,0.03334308788,680.9488525,0.05163189396,
679.9354858,0.0006600499037,679.9354858,0.024082385,679.9354858,0.03493867069,679.9354858,0.05414017662,
679.0667114,0.001057330053,679.0667114,0.0243179258,679.0667114,0.03621804714,679.0667114,0.05425364152,
678.0527954,0.0004247115867,678.0527954,0.02380576171,678.0527954,0.03718665242,678.0527954,0.05551100522,
677.0385742,-1.573838381E-5,677.0385742,0.02367420122,677.0385742,0.03743192181,677.0385742,0.0551677458,
676.0239868,-0.0005219614832,676.0239868,0.02536462434,676.0239868,0.03778880462,676.0239868,0.05687791482,
675.0090942,0.0007796859136,675.0090942,0.02617222071,675.0090942,0.03854223341,675.0090942,0.0588365607,
673.9938965,0.0014523766,673.9938965,0.02591921389,673.9938965,0.03970116377,673.9938965,0.05879355222,
672.9783936,0.000850928307,672.9783936,0.0268148724,672.9783936,0.04015471414,672.9783936,0.05938708782,
671.9625854,0.001285767765,671.9625854,0.02727698348,671.9625854,0.04223585501,671.9625854,0.06143618375,
670.9464111,0.0002392263414,670.9464111,0.02695920505,670.9464111,0.04051369801,670.9464111,0.06175420806,
669.9299927,-3.209741408E-5,669.9299927,0.0271713715,669.9299927,0.0401587449,669.9299927,0.06361080706,
669.0584717,-0.0002360158833,669.0584717,0.02787395939,669.0584717,0.04318536818,669.0584717,0.06438458711,
668.0414429,-0.000281082408,668.0414429,0.02944871038,668.0414429,0.04233971611,668.0414429,0.06484555453,
667.0240479,-0.0005394907785,667.0240479,0.02873967215,667.0240479,0.04405458644,667.0240479,0.06458449364,
666.0063477,0.0002048321912,666.0063477,0.03127356619,666.0063477,0.04470361397,666.0063477,0.0670959428,
664.9884033,-0.001023514895,664.9884033,0.03106611408,664.9884033,0.04592887312,664.9884033,0.0684748888,
663.9700928,0.0010002458,663.9700928,0.03166434541,663.9700928,0.04687369987,663.9700928,0.07065534592,
662.9514771,-5.290769695E-5,662.9514771,0.0326496847,662.9514771,0.04826519638,662.9514771,0.07235185802,
661.9324951,-0.0004372009425,661.9324951,0.03324191272,661.9324951,0.04935808107,661.9324951,0.07217933983,
661.0588989,0.0002012064651,661.0588989,0.03481199592,661.0588989,0.05012286082,661.0588989,0.07484205067,
660.0393677,5.009223605E-5,660.0393677,0.03490966558,660.0393677,0.05134765059,660.0393677,0.07630000263,
659.0195923,0.0003706639982,659.0195923,0.03474811092,659.0195923,0.05298931897,659.0195923,0.07773911953,
657.9994507,0.0008093796205,657.9994507,0.03595816344,657.9994507,0.05366722494,657.9994507,0.07868347317,
656.9790039,0.0005226673675,656.9790039,0.03704421222,656.9790039,0.054929059,656.9790039,0.0803867504,
655.958252,0.0005312460125,655.958252,0.03923610598,655.958252,0.05679538846,655.958252,0.08237608522,
654.9371948,0.0008456112701,654.9371948,0.03903030977,654.9371948,0.05696452782,654.9371948,0.08312292397,
654.0617065,0.0007653714274,654.0617065,0.0381892249,654.0617065,0.05887121335,654.0617065,0.08455920964,
653.0401001,-0.001229446614,653.0401001,0.03774983808,653.0401001,0.05754809082,653.0401001,0.08533338457,
652.0181274,-0.0002273228456,652.0181274,0.04085173458,652.0181274,0.05855079368,652.0181274,0.08562324196,
650.9959106,-6.134541036E-5,650.9959106,0.04049753025,650.9959106,0.05956558511,650.9959106,0.08826899529,
649.9733276,0.0008387381677,649.9733276,0.04024813697,649.9733276,0.05980736762,649.9733276,0.08649901301,
648.9504395,-0.0001014093868,648.9504395,0.03953543678,648.9504395,0.05994146317,648.9504395,0.0887414664,
647.9273071,0.00046212913,647.9273071,0.04102385417,647.9273071,0.06133358553,647.9273071,0.08872320503,
647.0500488,4.724446262E-5,647.0500488,0.04155962169,647.0500488,0.0601926744,647.0500488,0.08908426017,
646.0263062,-0.0003085546487,646.0263062,0.04091271386,646.0263062,0.06037828326,646.0263062,0.08889298886,
645.0022583,9.066212078E-5,645.0022583,0.04099477828,645.0022583,0.06141140312,645.0022583,0.08797257394,
643.9779053,0.001120338915,643.9779053,0.04065867886,643.9779053,0.06020421162,643.9779053,0.08844482154,
642.9532471,0.0009311061585,642.9532471,0.04176716134,642.9532471,0.0611009337,642.9532471,0.08902785927,
641.9282837,-0.0004031162534,641.9282837,0.04077040777,641.9282837,0.06017872691,641.9282837,0.08870609105,
641.0494995,0.0001166060538,641.0494995,0.04094443098,641.0494995,0.06047333777,641.0494995,0.08789802343,
640.0239868,-0.0001202495623,640.0239868,0.03956912085,640.0239868,0.05924886465,640.0239868,0.08713391423,
638.9981689,-5.140649228E-5,638.9981689,0.0403851606,638.9981689,0.05961062759,638.9981689,0.08759923279,
637.9720459,-0.0007518022321,637.9720459,0.04037865251,637.9720459,0.0597425811,637.9720459,0.08766983449,
636.9456177,0.0002593771787,636.9456177,0.04063710198,636.9456177,0.06058632582,636.9456177,0.08874972165,
636.0655518,-0.0001060159848,636.0655518,0.03960867971,636.0655518,0.05994137377,636.0655518,0.08722311258,
635.0385742,-0.0003931334068,635.0385742,0.03969985992,635.0385742,0.05914079025,635.0385742,0.08720124513,
634.0112915,0.0005977039691,634.0112915,0.04075400159,634.0112915,0.05967884138,634.0112915,0.08927450329,
632.9837036,-0.0001473179436,632.9837036,0.03938644007,632.9837036,0.05856272951,632.9837036,0.0880600065,
631.9558716,-8.981502469E-5,631.9558716,0.03984343261,631.9558716,0.06022978202,631.9558716,0.08786994964,
630.9276733,0.000293568417,630.9276733,0.04016618431,630.9276733,0.06035558879,630.9276733,0.08905290067,
630.0461426,0.001108193188,630.0461426,0.04103446752,630.0461426,0.05932440981,630.0461426,0.08891113102,
629.017395,-0.001075007021,629.017395,0.03987606242,629.017395,0.06016201898,629.017395,0.08797761798,
627.9884033,-0.0002992422087,627.9884033,0.0405333899,627.9884033,0.06103049964,627.9884033,0.08804640919,
626.9590454,3.083128104E-5,626.9590454,0.04101108015,626.9590454,0.05984661356,626.9590454,0.0881042704,
625.9294434,0.0009382400895,625.9294434,0.04143219814,625.9294434,0.0605551675,625.9294434,0.0890731737,
625.0466919,0.0007795043639,625.0466919,0.04062510654,625.0466919,0.0603386052,625.0466919,0.08879046142,
624.0164795,-0.0007059575291,624.0164795,0.03936699778,624.0164795,0.05910466239,624.0164795,0.08733046055,
622.9860229,-0.001155873877,622.9860229,0.03876276687,622.9860229,0.05753809959,622.9860229,0.08670057356,
621.9552612,-0.0006553005078,621.9552612,0.03881807253,621.9552612,0.05910436809,621.9552612,0.08693645149,
621.0715332,0.0001236748794,621.0715332,0.04025702551,621.0715332,0.05994686857,621.0715332,0.08870130032,
620.0402222,-8.950445772E-5,620.0402222,0.04018478096,620.0402222,0.05943389237,620.0402222,0.08853301406,
619.008667,0.001576024108,619.008667,0.04151988775,619.008667,0.06057602912,619.008667,0.08834154159,
617.9767456,0.0003272701579,617.9767456,0.0402886644,617.9767456,0.05974944308,617.9767456,0.08892736584,
616.9445801,0.0003578915203,616.9445801,0.04036558419,616.9445801,0.05989569798,616.9445801,0.08964172006,
616.0596313,0.0006275666528,616.0596313,0.04165138304,616.0596313,0.06158518791,616.0596313,0.0907754302,
615.0269165,0.0006581573398,615.0269165,0.04058389366,615.0269165,0.06224438921,615.0269165,0.09050261229,
613.9938965,0.0007095701294,613.9938965,0.04101674259,613.9938965,0.0614489764,613.9938965,0.09088312089,
612.9606323,-0.0004303221649,612.9606323,0.04102160782,612.9606323,0.06178345159,612.9606323,0.09231847525,
611.927002,-0.0006044824258,611.927002,0.04201109707,611.927002,0.06242597848,611.927002,0.09210372716,
611.0408936,0.0009533126722,611.0408936,0.04310454428,611.0408936,0.06469660252,611.0408936,0.09445777535,
610.0067749,-0.00096158206,610.0067749,0.04320821166,610.0067749,0.06394722313,610.0067749,0.09440131485,
608.9723511,0.0006359140971,608.9723511,0.04347699136,608.9723511,0.0651326403,608.9723511,0.09547457844,
607.9376221,-0.0008415136253,607.9376221,0.04477741569,607.9376221,0.06514061242,607.9376221,0.09737860411,
607.0505371,-0.0006925701746,607.0505371,0.04424592108,607.0505371,0.06705455482,607.0505371,0.09918160737,
606.0153198,0.001132926205,606.0153198,0.04661491513,606.0153198,0.06833195686,606.0153198,0.1001065224,
604.9797974,-0.001221496146,604.9797974,0.04577956349,604.9797974,0.06840670109,604.9797974,0.100852482,
603.9439697,-0.000703889993,603.9439697,0.04696613178,603.9439697,0.06969185919,603.9439697,0.103084527,
603.0559082,-0.0008374832105,603.0559082,0.04740674794,603.0559082,0.07101591676,603.0559082,0.1039320305,
602.0195923,-0.0005590358051,602.0195923,0.04779495671,602.0195923,0.07274355739,602.0195923,0.1056830212,
600.9829712,0.0009147892124,600.9829712,0.0500686802,600.9829712,0.07446089387,600.9829712,0.1085491925,
599.946106,0.0001762156462,599.946106,0.05096050352,599.946106,0.07607489079,599.946106,0.111085467,
599.0570679,0.0002250850375,599.0570679,0.05299929157,599.0570679,0.07763074338,599.0570679,0.1135629416,
598.0196533,-0.0006983593339,598.0196533,0.05347084254,598.0196533,0.07812521607,598.0196533,0.1140165776,
596.9819946,0.000540757901,596.9819946,0.05428658053,596.9819946,0.08117258549,596.9819946,0.1175991371,
595.9439697,-0.0006867808988,595.9439697,0.05496924743,595.9439697,0.08237029612,595.9439697,0.1187243238,
595.0540771,0.001025699195,595.0540771,0.05680987239,595.0540771,0.08390145004,595.0540771,0.1216004044,
594.015564,0.001167186303,594.015564,0.05790592358,594.015564,0.08608890325,594.015564,0.1250481606,
592.9767456,-0.0008682787302,592.9767456,0.05758210644,592.9767456,0.08743049204,592.9767456,0.1265988201,
591.9376831,0.001062441966,591.9376831,0.0618972294,591.9376831,0.09228856862,591.9376831,0.1327937692,
591.046814,-0.001332427375,591.046814,0.06164771691,591.046814,0.09282265604,591.046814,0.1337331831,
590.0072632,0.0001757754071,590.0072632,0.06538458914,590.0072632,0.0957884267,590.0072632,0.1387846321,
588.9674072,0.0004639689869,588.9674072,0.06782314181,588.9674072,0.09921244532,588.9674072,0.1427280307,
587.9272461,0.0005537690013,587.9272461,0.07034455985,587.9272461,0.1029807553,587.9272461,0.1475737691,
587.0354614,-0.0003682012029,587.0354614,0.07197675854,587.0354614,0.1055730209,587.0354614,0.1513180882,
585.994812,-0.0004891245626,585.994812,0.07458218932,585.994812,0.1093426347,585.994812,0.1560094506,
584.9538574,0.0008264965727,584.9538574,0.0775827989,584.9538574,0.1136589423,584.9538574,0.1612169743,
584.0614624,-0.0002628183574,584.0614624,0.07970423996,584.0614624,0.1165997088,584.0614624,0.1655128002,
583.0199585,-0.0009640099597,583.0199585,0.08125738055,583.0199585,0.1196125522,583.0199585,0.17033723,
581.9782715,1.814644202E-5,581.9782715,0.08584114909,581.9782715,0.125913009,581.9782715,0.177665621,
580.9362793,-0.0003905988706,580.9362793,0.089673765,580.9362793,0.1308013052,580.9362793,0.1827520728,
580.0429077,0.0001567678264,580.0429077,0.09277290851,580.0429077,0.1359069794,580.0429077,0.189830333,
579.0004272,0.0003705862619,579.0004272,0.09589006752,579.0004272,0.1398385018,579.0004272,0.1954913586,
577.9576416,-0.0005311657442,577.9576416,0.100267224,577.9576416,0.1448227614,577.9576416,0.2006693929,
577.0635986,0.000970175839,577.0635986,0.1021621227,577.0635986,0.1478822976,577.0635986,0.2055291384,
576.0203247,0.0001240114943,576.0203247,0.104524985,576.0203247,0.1511450559,576.0203247,0.2106997967,
574.9767456,0.0006131276023,574.9767456,0.1078448817,574.9767456,0.1560081542,574.9767456,0.2156904042,
573.9329224,0.000283569796,573.9329224,0.1106389612,573.9329224,0.1592300683,573.9329224,0.2218432575,
573.0380249,0.0004891318385,573.0380249,0.1125460863,573.0380249,0.1628210247,573.0380249,0.2251532823,
571.9937134,0.0001126703501,571.9937134,0.114431031,571.9937134,0.1648043394,571.9937134,0.228159681,
570.9490967,3.776927042E-5,570.9490967,0.1153786704,570.9490967,0.1665876955,570.9490967,0.2300747484,
570.0535278,0.0006835389067,570.0535278,0.1168286875,570.0535278,0.1686825156,570.0535278,0.23282516,
569.0084229,0.0008576977998,569.0084229,0.1178552285,569.0084229,0.1701188684,569.0084229,0.2357796878,
567.9630127,5.959358896E-5,567.9630127,0.1184338182,567.9630127,0.1709829718,567.9630127,0.2366236597,
567.0667725,0.0005089314654,567.0667725,0.1189694703,567.0667725,0.1714835614,567.0667725,0.2369430214,
566.0209351,-0.0001149702512,566.0209351,0.1190628931,566.0209351,0.1708856672,566.0209351,0.2362293005,
564.9747925,0.001188963652,564.9747925,0.11940974,564.9747925,0.1708676815,564.9747925,0.2379449308,
563.9284058,-0.000268147618,563.9284058,0.1188882515,563.9284058,0.1707298905,563.9284058,0.2373430729,
563.03125,-0.0003721842368,563.03125,0.1173729077,563.03125,0.1698294282,563.03125,0.2368802577,
561.984375,-0.0004388559901,561.984375,0.1173097566,561.984375,0.1709964871,561.984375,0.23621957,
560.9372559,-0.001154324855,560.9372559,0.1171888337,560.9372559,0.1693022251,560.9372559,0.2363846153,
560.0394287,-0.0005788902054,560.0394287,0.1170927957,560.0394287,0.1697409451,560.0394287,0.2358082086,
558.9918213,0.0004784808552,558.9918213,0.1188097671,558.9918213,0.1696330905,558.9918213,0.236665979,
557.9439087,-0.0003618386108,557.9439087,0.1167784855,557.9439087,0.1697910428,557.9439087,0.2372079343,
557.0454712,0.0002321815264,557.0454712,0.11760436,557.0454712,0.1700432748,557.0454712,0.2379071116,
555.9970703,0.0001092784223,555.9970703,0.117354013,555.9970703,0.1709187478,555.9970703,0.2396144271,
554.9484253,6.883624155E-5,554.9484253,0.1179405302,554.9484253,0.1713788062,554.9484253,0.239585802,
554.0493774,0.0004823680501,554.0493774,0.1190912575,554.0493774,0.172613591,554.0493774,0.2422742099,
553.0001831,-0.0003401119611,553.0001831,0.1189515293,553.0001831,0.1737381518,553.0001831,0.2432924211,
551.9508057,-0.0006603147485,551.9508057,0.120178327,551.9508057,0.1743810177,551.9508057,0.2445067912,
551.0510864,-0.0002331182186,551.0510864,0.1212418452,551.0510864,0.1761049926,551.0510864,0.2479135245,
550.0012207,-0.0002319281048,550.0012207,0.1230895892,550.0012207,0.1790669858,550.0012207,0.2494233549,
548.9510498,-9.835554374E-5,548.9510498,0.123859182,548.9510498,0.1804756522,548.9510498,0.2527174056,
548.0507202,-0.0003375771048,548.0507202,0.125084579,548.0507202,0.1834492981,548.0507202,0.2556750774,
547.000061,0.0004647204769,547.000061,0.1272681803,547.000061,0.1857085675,547.000061,0.2587209642,
545.9492188,0.0004070922732,545.9492188,0.1286263317,545.9492188,0.1872728318,545.9492188,0.2614076436,
545.0482178,-0.0007200681139,545.0482178,0.1293785721,545.0482178,0.188020587,545.0482178,0.2626265585,
543.9968872,-0.0004120126541,543.9968872,0.1316667497,543.9968872,0.1898365468,543.9968872,0.2654243112,
542.9452515,0.0008675540448,542.9452515,0.1321388632,542.9452515,0.1920745075,542.9452515,0.2675108016,
542.0436401,-1.087197052E-5,542.0436401,0.1323776096,542.0436401,0.1930758059,542.0436401,0.2681976259,
540.9915161,-0.0008724121726,540.9915161,0.1331949234,540.9915161,0.1938850433,540.9915161,0.269492656,
539.939209,-0.0001654316002,539.939209,0.1343853623,539.939209,0.1953442693,539.939209,0.2718397677,
539.0369873,6.018904605E-5,539.0369873,0.1344272643,539.0369873,0.1959788203,539.0369873,0.2727319002,
537.9841309,-0.000903928536,537.9841309,0.1347201616,537.9841309,0.1958935559,537.9841309,0.2728396654,
536.9310303,-0.0011912419,536.9310303,0.136357531,536.9310303,0.1964150369,536.9310303,0.2735388875,
536.0281982,0.0009009112255,536.0281982,0.13772358,536.0281982,0.1986352056,536.0281982,0.2746657431,
534.9746704,0.0007518352941,534.9746704,0.136548385,534.9746704,0.1979367137,534.9746704,0.2759454548,
534.0714111,0.0001937220077,534.0714111,0.1355786473,534.0714111,0.1972202063,534.0714111,0.27437374,
533.017395,1.201125542E-5,533.017395,0.1356749684,533.017395,0.1967694163,533.017395,0.2739873528,
531.9631348,1.069103655E-5,531.9631348,0.1364712268,531.9631348,0.197412625,531.9631348,0.2744842768,
531.0592651,-0.001050940249,531.0592651,0.1359543055,531.0592651,0.1956163496,531.0592651,0.272608757,
530.0045166,-9.825202142E-5,530.0045166,0.136239171,530.0045166,0.1968132406,530.0045166,0.2729444206,
528.9495239,-0.001117043081,528.9495239,0.1347385198,528.9495239,0.1942575723,528.9495239,0.272567153,
528.0450439,-0.001058480586,528.0450439,0.1331830025,528.0450439,0.1936233938,528.0450439,0.2711576521,
526.989624,-0.000377356977,526.989624,0.1326197386,526.989624,0.1927634329,526.989624,0.2696385086,
525.9338989,-6.579714682E-5,525.9338989,0.1325188875,525.9338989,0.1923286915,525.9338989,0.2687806785,
525.0288086,0.0001283874881,525.0288086,0.1319982708,525.0288086,0.1918477565,525.0288086,0.2690900564,
523.9726563,0.0007195007638,523.9726563,0.131436184,523.9726563,0.1908865273,523.9726563,0.2677052617,
523.0671997,0.0004206435406,523.0671997,0.130147323,523.0671997,0.1891292036,523.0671997,0.2650771141,
522.0105591,-0.0009437082335,522.0105591,0.1308459044,522.0105591,0.1885937303,522.0105591,0.2649098635,
520.9537354,0.0006257779896,520.9537354,0.1286852658,520.9537354,0.1877619773,520.9537354,0.2628064454,
520.0476074,-0.0003792191274,520.0476074,0.129353568,520.0476074,0.1868715733,520.0476074,0.2620855272,
518.9902954,0.001356677734,518.9902954,0.1283225119,518.9902954,0.1873784661,518.9902954,0.2617342174,
517.9327393,0.0001101846574,517.9327393,0.1262924671,517.9327393,0.1856859028,517.9327393,0.2591296136,
517.026062,-4.959468424E-5,517.026062,0.1268179417,517.026062,0.1845296621,517.026062,0.2587091625,
515.9680786,-0.0002551089274,515.9680786,0.1266357899,515.9680786,0.1841890365,515.9680786,0.2577571273,
515.0609741,0.0004538109642,515.0609741,0.1249409765,515.0609741,0.1833764464,515.0609741,0.2572836578,
514.0025024,-0.0002224587952,514.0025024,0.1252880543,514.0025024,0.1823643893,514.0025024,0.2553400993,
512.9437866,0.000399474724,512.9437866,0.1242019236,512.9437866,0.1812168956,512.9437866,0.2559210062,
512.0361328,-0.0002534014639,512.0361328,0.1235048175,512.0361328,0.1802118868,512.0361328,0.2542111874,
510.9769897,-0.00095140544,510.9769897,0.1229572594,510.9769897,0.1796216667,510.9769897,0.2524661422,
510.0689392,0.0003106909571,510.0689392,0.1226011142,510.0689392,0.1782312542,510.0689392,0.2534705997,
509.0093384,-8.272367268E-5,509.0093384,0.121911779,509.0093384,0.1791085452,509.0093384,0.2525514662,
507.9494934,0.0003991120029,507.9494934,0.1208719611,507.9494934,0.1772889793,507.9494934,0.2519244552,
507.040863,0.0001631122286,507.040863,0.1202716082,507.040863,0.1770261675,507.040863,0.2510533929,
505.9805603,-0.0006956198486,505.9805603,0.1201870367,505.9805603,0.1771043539,505.9805603,0.250082314,
505.0715332,-0.0002250460675,505.0715332,0.1210769638,505.0715332,0.1759077758,505.0715332,0.2500177026,
504.0108032,0.0007736955304,504.0108032,0.1198075786,504.0108032,0.1765046269,504.0108032,0.250059098,
502.9498291,0.0001269892382,502.9498291,0.1194841713,502.9498291,0.1746798158,502.9498291,0.2484284341,
502.0402527,0.0001297857525,502.0402527,0.1195784584,502.0402527,0.1755886674,502.0402527,0.2490514666,
500.9788208,-0.0001033244916,500.9788208,0.1192160845,500.9788208,0.1751921624,500.9788208,0.2480524033,
500.0688477,-0.0006456336123,500.0688477,0.1189752221,500.0688477,0.1741588414,500.0688477,0.2482068688,
499.0069885,-5.943011638E-5,499.0069885,0.1195448786,499.0069885,0.1743310541,499.0069885,0.2488052547,
497.9449158,0.0003092403058,497.9449158,0.119569011,497.9449158,0.1746957302,497.9449158,0.248970598,
497.0343628,0.0002233756823,497.0343628,0.11897403,497.0343628,0.1749673188,497.0343628,0.2496691495,
495.9718323,0.0007913038135,495.9718323,0.1185895726,495.9718323,0.1744299829,495.9718323,0.249771595,
495.0609131,-0.0003953058622,495.0609131,0.1181663424,495.0609131,0.1746090353,495.0609131,0.249214977,
493.9979553,-0.0001759889274,493.9979553,0.1189312041,493.9979553,0.1744488627,493.9979553,0.2495979965,
492.9347839,0.0009466453921,492.9347839,0.1195724905,492.9347839,0.1756939292,492.9347839,0.2515102625,
492.0232849,0.0009105868521,492.0232849,0.1196849048,492.0232849,0.1756329983,492.0232849,0.2517395318,
490.9596558,-7.009354886E-5,490.9596558,0.1206602529,490.9596558,0.1769051254,490.9596558,0.2521465719,
490.0477905,-0.0003691322927,490.0477905,0.1196850017,490.0477905,0.1769994348,490.0477905,0.2524181306,
488.9837341,-0.0009823478758,488.9837341,0.1195307299,488.9837341,0.17621319,488.9837341,0.2528678179,
488.0715332,0.0009461006266,488.0715332,0.1206640527,488.0715332,0.1774979234,488.0715332,0.2542367876,
487.0070496,0.0003169598931,487.0070496,0.1214451715,487.0070496,0.1786247492,487.0070496,0.2555252314,
485.9423218,0.0002229094971,485.9423218,0.1224967986,485.9423218,0.179708004,485.9423218,0.2575906813,
485.029541,0.0009489023942,485.029541,0.1231391504,485.029541,0.1804486364,485.029541,0.2583084106,
483.9644165,0.001021807198,483.9644165,0.1227029487,483.9644165,0.1808113456,483.9644165,0.2589710355,
483.051239,-0.0004506996193,483.051239,0.1234890223,483.051239,0.1811617762,483.051239,0.2598643601,
481.9856873,-0.0003197292972,481.9856873,0.1244299784,481.9856873,0.1827197373,481.9856873,0.2619464397,
481.0721741,0.0002485246223,481.0721741,0.125955075,481.0721741,0.1851738095,481.0721741,0.2642811239,
480.0061951,-0.0003103136551,480.0061951,0.1260369271,480.0061951,0.1854672283,480.0061951,0.2661674917,
478.9400024,0.0001248918707,478.9400024,0.126572758,478.9400024,0.186882481,478.9400024,0.2684045434,
478.0259094,0.0006978766178,478.0259094,0.128878653,478.0259094,0.1899545491,478.0259094,0.2714273036,
476.9592896,-0.0009384389268,476.9592896,0.129183352,476.9592896,0.1906005442,476.9592896,0.2740895748,
476.0448608,0.000231637634,476.0448608,0.1312191039,476.0448608,0.1935419291,476.0448608,0.2775660455,
474.9778137,0.0006956209545,474.9778137,0.1335300058,474.9778137,0.1965232342,474.9778137,0.2817443609,
474.0630188,0.0006120129256,474.0630188,0.1342272609,474.0630188,0.1988096684,474.0630188,0.2843708992,
472.995575,0.0001392888371,472.995575,0.135723412,472.995575,0.2009873092,472.995575,0.2881701291,
471.927887,0.0004200475814,471.927887,0.1387911886,471.927887,0.2045321167,471.927887,0.2927155197,
471.0125427,0.0001649767219,471.0125427,0.1414699703,471.0125427,0.2073346674,471.0125427,0.2970338762,
469.944458,0.0006382472347,469.944458,0.1434429288,469.944458,0.2114699036,469.944458,0.3020767868,
469.0287781,0.0006947912625,469.0287781,0.1458817273,469.0287781,0.2155017555,469.0287781,0.3081044257,
467.9602661,0.0004919047933,467.9602661,0.148820281,467.9602661,0.2188871801,467.9602661,0.3130087852,
467.04422,0.001073574414,467.04422,0.1506742835,467.04422,0.2228147984,467.04422,0.31811288,
465.9753113,-0.0001835962466,465.9753113,0.1534755528,465.9753113,0.2266643643,465.9753113,0.3235462904,
465.0589294,0.0009774661157,465.0589294,0.1567145139,465.0589294,0.2311670631,465.0589294,0.3296154737,
463.9895935,9.524491907E-5,463.9895935,0.1608324796,463.9895935,0.2371354103,463.9895935,0.3375802636,
463.072876,0.0002401328529,463.072876,0.1635062695,463.072876,0.2409843504,463.072876,0.3436791301,
462.0031433,1.739571962E-5,462.0031433,0.1672149897,462.0031433,0.2466033697,462.0031433,0.3514826596,
460.933197,-0.0003954092972,460.933197,0.1714610904,460.933197,0.2523567379,460.933197,0.3587999642,
460.0159302,-0.0005720653571,460.0159302,0.1743259132,460.0159302,0.2569409311,460.0159302,0.3656618297,
458.9455566,4.592413461E-5,458.9455566,0.1791713387,458.9455566,0.2641242146,458.9455566,0.3754280508,
458.0279541,0.0006431728252,458.0279541,0.1855919063,458.0279541,0.2723556161,458.0279541,0.386212796,
456.9571838,0.0007852095878,456.9571838,0.1907402724,456.9571838,0.2803530097,456.9571838,0.3965138495,
456.0392456,0.0008274561842,456.0392456,0.1950301528,456.0392456,0.2860119343,456.0392456,0.4050413966,
454.9680786,0.0002667591616,454.9680786,0.2009782493,454.9680786,0.294534117,454.9680786,0.4167826474,
454.0497742,0.0007312726812,454.0497742,0.2068961561,454.0497742,0.3030824661,454.0497742,0.42852512,
452.978241,0.0007179450477,452.978241,0.2141172737,452.978241,0.3141184747,452.978241,0.4437219203,
452.0596008,0.0001742734166,452.0596008,0.2197292745,452.0596008,0.3222159743,452.0596008,0.4558410347,
450.9876404,-0.001085903728,450.9876404,0.2283277959,450.9876404,0.3342692256,450.9876404,0.4717230797,
450.0686646,-0.000597296108,450.0686646,0.2349294126,450.0686646,0.3437226117,450.0686646,0.4856348336,
448.9963074,0.0001468241389,448.9963074,0.2447331697,448.9963074,0.3587325513,448.9963074,0.5051137805,
447.9237671,-0.000186494246,447.9237671,0.2555384934,447.9237671,0.3749143779,447.9237671,0.5256972909,
447.0042725,-0.0004721621517,447.0042725,0.2668345869,447.0042725,0.3915056288,447.0042725,0.5507618785,
445.9313354,0.0007096478948,445.9313354,0.2786964774,445.9313354,0.4092845917,445.9313354,0.570887506,
445.0114746,-0.0003813399235,445.0114746,0.2902955413,445.0114746,0.4250381589,445.0114746,0.593008101,
443.9381409,0.0006776276277,443.9381409,0.304762274,443.9381409,0.4450061917,443.9381409,0.6214970946,
443.0179749,-0.0003901333548,443.0179749,0.3192751408,443.0179749,0.4638735652,443.0179749,0.6546949744,
441.9442749,0.0006648201961,441.9442749,0.3396595716,441.9442749,0.4976848364,441.9442749,0.6948025227,
441.0237732,-0.0003909092338,441.0237732,0.3534371257,441.0237732,0.5160310268,441.0237732,0.7212269306,
439.949646,0.0004990574671,439.949646,0.3757192791,439.949646,0.5487278104,439.949646,0.7645794749,
439.0288086,-6.134541036E-5,439.0288086,0.3940707743,439.0288086,0.5721774697,439.0288086,0.7966169119,
437.9543152,0.0003677363857,437.9543152,0.4179090261,437.9543152,0.6088986397,437.9543152,0.8442080617,
437.0331726,9.81189005E-5,437.0331726,0.4461638629,437.0331726,0.6480787396,437.0331726,0.8989955187,
435.9582825,-1.03542643E-5,435.9582825,0.474799186,435.9582825,0.6870347261,435.9582825,0.9455110431,
435.0368042,-6.719477824E-5,435.0368042,0.4984665811,435.0368042,0.7283869386,435.0368042,1.00089407,
433.9615479,-0.0002770467836,433.9615479,0.5274441242,433.9615479,0.7689909935,433.9615479,1.062793493,
433.0397339,0.00037312528,433.0397339,0.562394321,433.0397339,0.8131882548,433.0397339,1.117471933,
431.9640808,-0.0008192941896,431.9640808,0.6042684317,431.9640808,0.8712186217,431.9640808,1.194518685,
431.0419312,-0.0005210307427,431.0419312,0.640545845,431.0419312,0.9170817733,431.0419312,1.255264521,
429.9659119,-0.00063043501,429.9659119,0.6804497242,429.9659119,0.969060123,429.9659119,1.325351954,
429.043457,-0.000400633493,429.043457,0.7158497572,429.043457,1.017298698,429.043457,1.386116147,
427.9670715,0.0001416193409,427.9670715,0.7553465366,427.9670715,1.079677939,427.9670715,1.46816659,
427.044281,0.0001937738125,427.044281,0.7936563492,427.044281,1.124152541,427.044281,1.526233077,
425.9675293,0.0001467723487,425.9675293,0.8347686529,425.9675293,1.178769827,425.9675293,1.608598232,
425.0444031,3.228100104E-5,425.0444031,0.8642862439,425.0444031,1.222352147,425.0444031,1.652427793,
423.9672852,0.001093971659,423.9672852,0.8987476826,423.9672852,1.274689555,423.9672852,1.718991399,
423.0438538,0.0008557265974,423.0438538,0.9234029651,423.0438538,1.305177212,423.0438538,1.761317968,
421.9663391,-0.0001277543488,421.9663391,0.9526621103,421.9663391,1.343145967,421.9663391,1.804286718,
421.0426025,0.0008057228988,421.0426025,0.9747014642,421.0426025,1.372918367,421.0426025,1.837880254,
419.9647217,-4.358978185E-5,419.9647217,0.9880707264,419.9647217,1.389748931,419.9647217,1.854373217,
419.0406494,-5.906776278E-5,419.0406494,0.9978760481,419.0406494,1.402833462,419.0406494,1.878409266,
417.9624023,-0.0005799242645,417.9624023,0.9998046756,417.9624023,1.410601854,417.9624023,1.881533861,
417.0380249,0.0002701782214,417.0380249,0.9994252324,417.0380249,1.40201056,417.0380249,1.865280271,
415.9594116,-3.908605504E-5,415.9594116,0.9915439487,415.9594116,1.400183797,415.9594116,1.85141623,
415.034729,0.0001944989344,415.034729,0.9807653427,415.034729,1.381003976,415.034729,1.834746003,
413.95578,0.0004322000314,413.95578,0.9697782993,413.95578,1.36141479,413.95578,1.810595632,
413.0307617,-0.0008960238192,413.0307617,0.9555174708,413.0307617,1.348665357,413.0307617,1.797801614,
411.951416,-0.0008893072954,411.951416,0.9402638674,411.951416,1.319504142,411.951416,1.752454162,
411.026123,0.0006681905361,411.026123,0.9228020906,411.026123,1.296762586,411.026123,1.735693336,
409.9464417,-0.000315590587,409.9464417,0.8984652758,409.9464417,1.265472174,409.9464417,1.688774824,
409.020813,-0.000446613878,409.020813,0.8848441839,409.020813,1.242932677,409.020813,1.653336167,
407.9407654,-0.0006141501945,407.9407654,0.8637621999,407.9407654,1.21823287,407.9407654,1.623887897,
407.0148315,0.0001501127845,407.0148315,0.8507364392,407.0148315,1.196839809,407.0148315,1.595659614,
405.9344177,0.0004660161794,405.9344177,0.8314715028,405.9344177,1.178103924,405.9344177,1.567399025,
405.0082092,0.0002253440325,405.0082092,0.8154876828,405.0082092,1.151366711,405.0082092,1.549321532,
403.9274292,-0.0002817549976,403.9274292,0.8003175259,403.9274292,1.133255363,403.9274292,1.516070008,
403.000885,0.0001475491881,403.000885,0.7899329662,403.000885,1.116466403,403.000885,1.506504178,
402.0742188,0.0004618181556,402.0742188,0.7816926837,402.0742188,1.101461887,402.0742188,1.486172438,
400.9929504,-0.0006222151569,400.9929504,0.7698509097,400.9929504,1.091766477,400.9929504,1.459766388,
400.065979,0.000103064267,400.065979,0.7575462461,400.065979,1.074692249,400.065979,1.448328137,
398.9843445,-0.0001347414509,398.9843445,0.7487119436,398.9843445,1.063054919,398.9843445,1.423965812,
398.0570679,-0.0004091679002,398.0570679,0.7396017313,398.0570679,1.051058292,398.0570679,1.413693309,
396.9750977,-0.0005456956569,396.9750977,0.7310221195,396.9750977,1.035253525,396.9750977,1.399882555,
396.0475159,-2.609227158E-5,396.0475159,0.7212595344,396.0475159,1.024509311,396.0475159,1.384506822,
394.9651794,-0.0009457229753,394.9651794,0.7108623385,394.9651794,1.008923531,394.9651794,1.365071058,
394.037323,-0.000706836232,394.037323,0.7019363642,394.037323,0.9983779192,394.037323,1.347216964,
392.9546509,-0.0002986731124,392.9546509,0.6891723871,392.9546509,0.985230267,392.9546509,1.333860159,
392.0264893,-4.094967153E-5,392.0264893,0.6851674914,392.0264893,0.9703801274,392.0264893,1.314644814,
390.9434509,0.0006947912625,390.9434509,0.6741265655,390.9434509,0.9577285051,390.9434509,1.300467849,
390.0150146,0.0006804277073,390.0150146,0.6603772044,390.0150146,0.9448014498,390.0150146,1.278547764,
388.9316406,0.0002430077875,388.9316406,0.6468328834,388.9316406,0.9260857105,388.9316406,1.253863692,
388.0028992,8.382685337E-5,388.0028992,0.6395879984,388.0028992,0.9125583172,388.0028992,1.237342715,
387.0740051,0.0002376982302,387.0740051,0.6318195462,387.0740051,0.9015284777,387.0740051,1.225914836,
385.9901428,-0.0001461793436,385.9901428,0.6166964173,385.9901428,0.8850357533,385.9901428,1.205107927,
385.0609741,-0.0005213926779,385.0609741,0.6071617603,385.0609741,0.872628808,385.0609741,1.184042454,
383.9767761,0.0001730821823,383.9767761,0.5970777273,383.9767761,0.8538740277,383.9767761,1.166127324,
383.0473328,0.0005491813645,383.0473328,0.588888526,383.0473328,0.8439339995,383.0473328,1.149150372,
381.9627991,-0.0007084902027,381.9627991,0.5764965415,381.9627991,0.8262461424,381.9627991,1.137228251,
381.0330505,0.0003122452181,381.0330505,0.5714478493,381.0330505,0.8220203519,381.0330505,1.123660445,
379.9481812,-1.242524718E-6,379.9481812,0.5648787022,379.9481812,0.8081448674,379.9481812,1.108154893,
379.018158,0.0001028312399,379.018158,0.5546364784,379.018158,0.7980118394,379.018158,1.097269535,
377.9329529,-5.311475979E-5,377.9329529,0.5501979589,377.9329529,0.791942358,377.9329529,1.085468054,
377.0026245,-2.692057205E-5,377.0026245,0.5457542539,377.0026245,0.7844957709,377.0026245,1.079637051,
376.0721741,-6.201834913E-5,376.0721741,0.5404155254,376.0721741,0.7787518501,376.0721741,1.073571205,
374.9865112,8.592403174E-5,374.9865112,0.5362663269,374.9865112,0.7734643817,374.9865112,1.067065239,
374.0557861,-0.0002710450208,374.0557861,0.5341078043,374.0557861,0.7688166499,374.0557861,1.059678555,
372.9697571,-0.0005778561463,372.9697571,0.5287740231,372.9697571,0.7645068765,372.9697571,1.055041194,
372.0387573,-0.0005950729246,372.0387573,0.5275574327,372.0387573,0.7606452703,372.0387573,1.050573111,
370.9524231,0.0006639387575,370.9524231,0.5261463523,370.9524231,0.7594901919,370.9524231,1.048235893,
370.0211182,0.0005719126784,370.0211182,0.5253808498,370.0211182,0.7567670345,370.0211182,1.044409633,
368.9344788,-0.0008079257095,368.9344788,0.5217344761,368.9344788,0.7546186447,368.9344788,1.044298291,
368.0028992,-0.0001015646631,368.0028992,0.5207173228,368.0028992,0.7542642951,368.0028992,1.041298866,
367.0711975,0.0004340397718,367.0711975,0.5188379884,367.0711975,0.7509707212,367.0711975,1.037216425,
365.9840698,-0.0004088058195,365.9840698,0.5170403719,365.9840698,0.7496687174,365.9840698,1.04044199,
365.0520935,6.611779827E-5,365.0520935,0.515245676,365.0520935,0.7465133667,365.0520935,1.032807231,
363.9646606,0.0001047990445,363.9646606,0.5122570992,363.9646606,0.7416121364,363.9646606,1.030383229,
363.0324097,0.0005074283108,363.0324097,0.5108971596,363.0324097,0.7377736568,363.0324097,1.024631739,
361.9446411,0.0004242711002,361.9446411,0.5070685148,361.9446411,0.7341114283,361.9446411,1.020338774,
361.0121155,0.0002104003361,361.0121155,0.5049206018,361.0121155,0.73193717,361.0121155,1.015056729,
359.9240417,0.0003932305262,359.9240417,0.5005370975,359.9240417,0.7238635421,359.9240417,1.008798718,
358.991272,-0.000207245379,358.991272,0.4952784181,358.991272,0.7177339792,358.991272,0.9975376725,
358.0583496,0.0001469536219,358.0583496,0.4919005036,358.0583496,0.7129775882,358.0583496,0.9956457615,
356.9698181,-0.0003528894158,356.9698181,0.4864077568,356.9698181,0.7066269517,356.9698181,0.9806054235,
356.0366211,5.358428552E-6,356.0366211,0.4824132025,356.0366211,0.6997169852,356.0366211,0.9733108878,
354.9477539,0.0002360147191,354.9477539,0.4776795208,354.9477539,0.6912065148,354.9477539,0.961884141,
354.0143127,-0.0004046679533,354.0143127,0.4693498313,354.0143127,0.6822578907,354.0143127,0.9502339363,
352.9251404,0.0006189342821,352.9251404,0.4621358514,352.9251404,0.6708688736,352.9251404,0.9370070696,
351.9914551,0.001344499411,351.9914551,0.4577324092,351.9914551,0.6635696888,351.9914551,0.9238844514,
351.0576172,-0.0001463863591,351.0576172,0.4498414993,351.0576172,0.6547150612,351.0576172,0.915766418,
349.9679871,-0.0003788570466,349.9679871,0.4435133636,349.9679871,0.6462414861,349.9679871,0.8983333707,
349.033905,0.0009341412806,349.033905,0.4354482591,349.033905,0.6389586329,349.033905,0.8862223625,
347.9439697,-0.000924077176,347.9439697,0.4288710356,347.9439697,0.6249384284,347.9439697,0.8734079003,
347.009613,-0.0004171331821,347.009613,0.4229131639,347.009613,0.6162545681,347.009613,0.866746664,
346.0751343,0.0002342276275,346.0751343,0.4186937213,346.0751343,0.6111645103,346.0751343,0.8579269648,
344.9847717,-0.0001178169477,344.9847717,0.412507683,344.9847717,0.6017304659,344.9847717,0.8425766826,
344.0500488,0.0001101587623,344.0500488,0.4036490023,344.0500488,0.5897877812,344.0500488,0.8318671584,
342.9593811,0.0001041776341,342.9593811,0.3985431194,342.9593811,0.5812882185,342.9593811,0.8169987202,
342.0243835,-0.0003632352746,342.0243835,0.3922796845,342.0243835,0.5738833547,342.0243835,0.8089869618,
340.9334106,-0.0001753161632,340.9334106,0.3848347664,340.9334106,0.563375175,340.9334106,0.7968615294,
339.9981689,0.0002641171741,339.9981689,0.3816494644,339.9981689,0.5596793294,339.9981689,0.7885484695,
339.0628052,-0.0002151626395,339.0628052,0.3776035607,339.0628052,0.5501748323,339.0628052,0.7795436382,
337.9713745,0.0003561816411,337.9713745,0.371224761,337.9713745,0.5428782701,337.9713745,0.7691424489,
337.0357666,-5.11994258E-5,337.0357666,0.3656769395,337.0357666,0.5340288877,337.0357666,0.7611616254,
335.9440613,0.0003577619791,335.9440613,0.3601727188,335.9440613,0.5284140706,335.9440613,0.7529115677,
335.0081787,-0.0005108437617,335.0081787,0.3565920293,335.0081787,0.5236594677,335.0081787,0.7432132959,
334.0722046,3.813170406E-5,334.0722046,0.3503066599,334.0722046,0.5172592402,334.0722046,0.7353470922,
332.980072,-0.000326040783,332.980072,0.346529305,332.980072,0.5094391108,332.980072,0.7260957956,
332.0438232,-7.273347728E-5,332.0438232,0.3405727446,332.0438232,0.5030368567,332.0438232,0.7176144719,
330.951416,8.683021588E-5,330.951416,0.3383470178,330.951416,0.4977054298,330.951416,0.70962888,
330.0149231,0.0001470830903,330.0149231,0.3330073357,330.0149231,0.4913507402,330.0149231,0.7038446069,
328.9222107,4.126419299E-5,328.9222107,0.3283972442,328.9222107,0.4873713553,328.9222107,0.6974909902,
327.9854736,-0.0006530776154,327.9854736,0.3247908056,327.9854736,0.4797034264,327.9854736,0.6904804111,
327.0486145,0.0003351713822,327.0486145,0.3214802146,327.0486145,0.477843076,327.0486145,0.6854400635,
325.9555054,0.0008626258932,325.9555054,0.3197875917,325.9555054,0.4726095796,325.9555054,0.6799430847,
325.0184021,-0.0009054268012,325.0184021,0.3155646026,325.0184021,0.4692651331,325.0184021,0.6780161262,
323.9249878,-0.0001247524488,323.9249878,0.3144212663,323.9249878,0.4668400288,323.9249878,0.6732680202,
322.9876404,-2.376266821E-5,322.9876404,0.3121646643,322.9876404,0.4636086524,322.9876404,0.6712548733,
322.0502014,-4.664401058E-5,322.0502014,0.3098136485,322.0502014,0.461071074,322.0502014,0.6687063575,
320.9563599,-0.0005208238726,320.9563599,0.3091396987,320.9563599,0.4589428902,320.9563599,0.6647987962,
320.0186768,0.0008739866316,320.0186768,0.3089499474,320.0186768,0.4589689672,320.0186768,0.6653159857,
318.9245605,0.0003900436568,318.9245605,0.3080872595,318.9245605,0.4585002065,318.9245605,0.6666265726,
317.9866333,-0.0002299100743,317.9866333,0.3077315092,317.9866333,0.457996875,317.9866333,0.66525352,
317.0486145,-0.0003327142913,317.0486145,0.3082851768,317.0486145,0.4593295753,317.0486145,0.6680163145,
315.954071,-8.029085438E-5,315.954071,0.3093428314,315.954071,0.4607392848,315.954071,0.6708993912,
315.0158081,-0.000550245808,315.0158081,0.3095588684,315.0158081,0.4615871608,315.0158081,0.6733728051,
314.0774231,-0.0002198715229,314.0774231,0.3116032481,314.0774231,0.4660365582,314.0774231,0.6776223183,
312.9825134,3.041707714E-5,312.9825134,0.3160763979,312.9825134,0.4721149802,312.9825134,0.6865081787,
312.0438843,0.0001105989359,312.0438843,0.320022881,312.0438843,0.4781838953,312.0438843,0.6962903738,
310.9486694,0.0001404799841,310.9486694,0.3270792961,310.9486694,0.4891128838,310.9486694,0.7102639675,
310.0098267,3.220333747E-5,310.0098267,0.3310754895,310.0098267,0.4977102578,310.0098267,0.7210301757,
309.0708618,8.276532753E-5,309.0708618,0.3403896093,309.0708618,0.5109326839,309.0708618,0.7370406985,
307.9752808,0.0006096021389,307.9752808,0.357714802,307.9752808,0.5305584669,307.9752808,0.7677320242,
307.0360718,-7.734038809E-5,307.0360718,0.3722450435,307.0360718,0.5533127189,307.0360718,0.7972772717,
305.9402161,-0.0001437986357,305.9402161,0.3919618726,305.9402161,0.5850379467,305.9402161,0.8370832205,
305.0007935,-6.879945431E-5,305.0007935,0.4138545096,305.0007935,0.6137667894,305.0007935,0.8766007423,
304.0612793,0.0002850462624,304.0612793,0.437951982,304.0612793,0.6482325196,304.0612793,0.9386816621,
302.9650269,0.001132588834,302.9650269,0.4863381088,302.9650269,0.7152984738,302.9650269,1.026758313,
302.0252686,-0.0004545267439,302.0252686,0.5161084533,302.0252686,0.7580868006,302.0252686,1.089933395,
300.9287415,0.0006116759032,300.9287415,0.5798599124,300.9287415,0.8333309889,300.9287415,1.193420172,
299.9887695,0.0002884654677,299.9887695,0.6166585088,299.9887695,0.9014618397,299.9887695,1.277488232,
299.0486755,-0.0001841137419,299.0486755,0.6876587868,299.0486755,0.9960626364,299.0486755,1.384325743,
297.9517822,-0.0001370186947,297.9517822,0.7607542276,297.9517822,1.089222312,297.9517822,1.524178982,
297.0114746,-9.633688751E-5,297.0114746,0.8239745498,297.0114746,1.180325985,297.0114746,1.634277463,
296.0710449,-0.0001846829982,296.0710449,0.9110943079,296.0710449,1.285418391,296.0710449,1.787762761,
294.9737549,8.144489402E-5,294.9737549,1.004430175,294.9737549,1.439536691,294.9737549,1.979714751,
294.0331421,4.494036693E-5,294.0331421,1.120241761,294.0331421,1.6080302,294.0331421,2.207072973,
292.9356079,-6.988648965E-5,292.9356079,1.289154172,292.9356079,1.880349398,292.9356079,2.506404638,
291.994751,0.0001741439337,291.994751,1.39308393,291.994751,2.028774023,291.994751,2.703601837,
291.053772,0.00072844635,291.053772,1.486908674,291.053772,2.100394964,291.053772,2.946023464,
289.9558716,1.351268565E-5,289.9558716,1.55012393,289.9558716,2.196272612,289.9558716,2.89501667,
289.0147095,0.0004302307498,289.0147095,1.619842529,289.0147095,2.31052494,289.0147095,2.924971581,
288.0734253,-0.0002625596535,288.0734253,1.735769868,288.0734253,2.453194857,288.0734253,3.379286766,
286.9751587,0.0001687834156,286.9751587,1.852858543,286.9751587,2.632918596,286.9751587,3.194809675,
286.0336609,-0.0001462828513,286.0336609,1.941628218,286.0336609,2.813280582,286.0336609,10,
284.9351196,0.0001395736763,284.9351196,2.0666399,284.9351196,2.906085968,284.9351196,10,
283.9934082,0.0005152291851,283.9934082,2.136006117,283.9934082,2.986066818,283.9934082,3.3461411,
283.0516052,0.0001299670112,283.0516052,2.136262655,283.0516052,3.005626202,283.0516052,3.358475208,
281.9527283,0.0003947591758,281.9527283,2.192109823,281.9527283,2.927041292,281.9527283,4.140346527,
281.0107117,0.0009413012885,281.0107117,2.17736268,281.0107117,2.902476549,281.0107117,3.220118523,
280.0686035,0.0004346357309,280.0686035,2.1790874,280.0686035,3.058298826,280.0686035,3.287704468,
278.9693298,0.0002311714343,278.9693298,2.215171576,278.9693298,3.031791687,278.9693298,3.592592716,
278.0270081,-0.0003700634115,278.0270081,2.205682755,278.0270081,3.070060015,278.0270081,10,
276.9275208,0.0006019032444,276.9275208,2.186291218,276.9275208,3.019977093,276.9275208,3.614743948,
275.9849854,-0.001182103297,275.9849854,2.160685062,275.9849854,2.908730745,275.9849854,4.399760723,
275.0423584,-0.0003064335033,275.0423584,2.129910946,275.0423584,2.943973541,275.0423584,10,
273.9425049,-0.001746478607,273.9425049,2.09975791,273.9425049,2.943920374,273.9425049,3.578730345,
272.9996948,-0.0001670359197,272.9996948,2.07839489,272.9996948,3.016433477,272.9996948,10,
272.0567627,-0.0001645518059,272.0567627,2.042483091,272.0567627,2.899817944,272.0567627,10,
270.956543,2.459173857E-6,270.956543,1.969761372,270.956543,2.805242777,270.956543,3.087904453,
270.0134277,0.0003755865619,270.0134277,1.956545949,270.0134277,2.711618662,270.0134277,3.122520924,
269.0701904,-0.001324891811,269.0701904,1.889906883,269.0701904,2.589661837,269.0701904,3.479644299,
267.9696655,-0.0008367081173,267.9696655,1.834969044,267.9696655,2.637150288,267.9696655,2.971373796,
267.0262451,0.0006192453438,267.0262451,1.795725822,267.0262451,2.545746326,267.0262451,3.998639107,
265.9254456,0.001493701129,265.9254456,1.748187542,265.9254456,2.547508955,265.9254456,3.394425154,
264.9818115,0.0009318584343,264.9818115,1.704257131,264.9818115,2.469666719,264.9818115,2.958024025,
264.0381165,0.0003806387249,264.0381165,1.633645773,264.0381165,2.332875729,264.0381165,2.999718189,
262.9369812,0.0006444690516,262.9369812,1.58894527,262.9369812,2.264270544,262.9369812,10,
261.9930725,-0.002252749633,261.9930725,1.553007722,261.9930725,2.270937681,261.9930725,3.080714226,
261.0490723,-9.695801418E-5,261.0490723,1.518361807,261.0490723,2.19412303,261.0490723,3.086659908,
259.9476318,-4.182970952E-5,259.9476318,1.48748064,259.9476318,2.140456676,259.9476318,3.097144842,
259.003418,-0.0007712860825,259.003418,1.441987753,259.003418,2.100363016,259.003418,2.820895195,
258.0591431,-0.000409633416,258.0591431,1.390896082,258.0591431,2.031397343,258.0591431,2.76885581,
256.9573364,0.002577853389,256.9573364,1.339747548,256.9573364,1.932228327,256.9573364,2.737396955,
256.0128479,0.001574932947,256.0128479,1.304283381,256.0128479,1.908364773,256.0128479,2.547124624,
255.0682831,0.001291557564,255.0682831,1.292702556,255.0682831,1.86513412,255.0682831,2.710199118,
253.9661713,0.001149900141,253.9661713,1.279996276,253.9661713,1.874758363,253.9661713,2.697566986,
253.0214233,0.0009421833092,253.0214233,1.271915793,253.0214233,1.864093542,253.0214233,2.540270805,
252.0765686,0.001946320175,252.0765686,1.265703082,252.0765686,1.859152555,252.0765686,2.537816286,
250.9741364,-0.0004333219549,250.9741364,1.264662504,250.9741364,1.868367553,250.9741364,2.779005527,
250.0290985,0.0009392778156,250.0290985,1.301085591,250.0290985,1.904603243,250.0290985,2.70642972,
248.9328461,-0.0009136412991,248.9328461,1.353548169,248.9328461,1.980800986,248.9328461,2.796831131,
247.9932556,-0.0006568512763,247.9932556,1.391242981,247.9932556,2.040310621,247.9932556,2.861655951,
247.0535736,-0.0009282617248,247.0535736,1.450271726,247.0535736,2.11629653,247.0535736,3.085166454,
245.9571838,0.0002181181626,245.9571838,1.564555645,245.9571838,2.317204475,245.9571838,3.580368042,
245.017334,0.0001940586808,245.017334,1.685795426,245.017334,2.44012332,245.017334,10,
244.0773926,0.0001735742117,244.0773926,1.87179482,244.0773926,2.792009115,244.0773926,3.716148615,
242.9806824,0.0006554352003,242.9806824,2.084182024,242.9806824,3.114460945,242.9806824,10,
242.0405579,0.0008611474768,242.0405579,2.211688757,242.0405579,3.000804663,242.0405579,3.137533665,
240.943634,0.0004688407644,240.943634,2.527482748,240.943634,3.238408804,240.943634,3.17393446,
240.0033417,0.0004403622879,240.0033417,2.814359188,240.0033417,10,240.0033417,2.85199976,
239.0629578,-0.0007923709927,239.0629578,2.765179396,239.0629578,3.391287327,239.0629578,3.058504581,
237.9657288,-0.0002889465832,237.9657288,3.001079321,237.9657288,3.012478828,237.9657288,3.557217598,
237.0251617,0.0005533802323,237.0251617,3.279760599,237.0251617,10,237.0251617,10,
235.9277344,0.001164383139,235.9277344,10,235.9277344,3.799038172,235.9277344,10,
234.9869995,0.002139221644,234.9869995,2.740197659,234.9869995,3.801024675,234.9869995,3.272078276,
234.0461731,0.002196897985,234.0461731,3.003040552,234.0461731,2.866641521,234.0461731,2.965562344,
232.9484558,-0.0005394390319,232.9484558,10,232.9484558,10,232.9484558,10,
232.0074615,-0.001170847565,232.0074615,2.605960846,232.0074615,10,232.0074615,10,
231.066391,0.0009217932238,231.066391,3.138541222,231.066391,3.492847443,231.066391,2.97919631,
229.9683685,-0.002413773211,229.9683685,10,229.9683685,10,229.9683685,10,
229.0271149,0.002669940935,229.0271149,3.319173098,229.0271149,3.308692217,229.0271149,3.616397858,
227.928894,0.0006401137798,227.928894,3.647812366,227.928894,10,227.928894,10,
226.9874878,0.007512988523,226.9874878,3.059736729,226.9874878,3.243222952,226.9874878,3.668512344,
226.04599,0.002772416454,226.04599,3.253945827,226.04599,10,226.04599,3.673756599,
224.9474792,0.005425694864,224.9474792,10,224.9474792,3.388462067,224.9474792,10,
224.0058136,-0.02052940056,224.0058136,3.32700181,224.0058136,3.061909199,224.0058136,3.005584955,
223.0640717,0.02453844808,223.0640717,3.054252148,223.0640717,10,223.0640717,10,
221.9652863,0.0004446896783,221.9652863,10,221.9652863,2.789162159,221.9652863,3.101073503,
221.0233765,-0.04112108797,221.0233765,2.66366744,221.0233765,3.174375296,221.0233765,10,
219.9243927,-0.005100376438,219.9243927,2.613387585,219.9243927,2.158733368,219.9243927,2.290192366,
218.9823303,-0.001721263048,218.9823303,1.732014537,218.9823303,1.922002196,218.9823303,2.100999594,
218.0401764,0.0001575705828,218.0401764,1.727832675,218.0401764,1.447144747,218.0401764,10,
216.940918,0.006761014462,216.940918,1.136609435,216.940918,1.832638144,216.940918,1.668028235,
215.9986115,0.08046796173,215.9986115,1.450833797,215.9986115,1.573391795,215.9986115,10,
215.0562286,-0.02182831615,215.0562286,1.169189334,215.0562286,1.21755743,215.0562286,10,
213.9566956,-0.02576783113,213.9566956,0.8712024093,213.9566956,0.9265705347,213.9566956,1.435163379,
213.0141602,0.03235885128,213.0141602,0.6849659681,213.0141602,0.5299266577,213.0141602,1.287907004,
212.0715485,-0.003838443197,212.0715485,0.5553870201,212.0715485,0.706581533,212.0715485,0.8734408021,
210.9717407,-0.08362998813,210.9717407,0.6528378725,210.9717407,0.4393357635,210.9717407,0.3523256183,
210.0289612,0.0168885123,210.0289612,1.082208753,210.0289612,0.5690235496,210.0289612,0.9667448997,
208.9289703,-0.1731223315,208.9289703,0.4809899032,208.9289703,1.069306612,208.9289703,1.489233136,
207.9860382,0.09388446808,207.9860382,0.5434556603,207.9860382,0.7581441402,207.9860382,10,
207.043045,0.1199210361,207.043045,0.7158116102,207.043045,0.6534778476,207.043045,0.2062057555,
205.9427948,0.01849724539,205.9427948,0.3994899392,205.9427948,0.8670091629,205.9427948,0.2644260228,
204.9996338,-0.09337375313,204.9996338,0.187100634,204.9996338,0.9466070533,204.9996338,0.3337386549,
204.0564117,-0.02968450449,204.0564117,0.2652716637,204.0564117,0.3922098279,204.0564117,0.4768351316,
202.9559021,0.1746245921,202.9559021,0.5321856141,202.9559021,0.5557968616,202.9559021,0.7159095407,
202.0125275,-0.01627170853,202.0125275,0.4412052035,202.0125275,0.47408548,202.0125275,0.6858586669,
201.0690918,0.09479855001,201.0690918,0.3880704641,201.0690918,0.6572160125,201.0690918,0.7556140423,
199.967926,-0.02039264143,199.967926,0.2479589283,199.967926,0.4237793982,199.967926,0.4824700058,

blank,
blank
Collection Time: 13/10/2020 16:13:38
Operator Name  :
Scan Software Version: 3.00(339)
Parameter List :
Instrument                        Cary 50
Instrument Version                3.00
Start (nm)                        800.0
Stop (nm)                         200.0
X Mode                            Nanometers
Y Mode                            Abs
UV-Vis Scan Rate (nm/min)         4800.00
UV-Vis Data Interval (nm)         1.00
UV-Vis Ave. Time (sec)            0.0125
Beam Mode                         Dual Beam
Baseline Correction               On
Baseline Type                     Baseline correction
Baseline File Name
Baseline Std Ref File Name
Cycle Mode                        Off
Comments
Method Log     :
Method Name    :
Date/Time stamp: 13/10/2020 16:11:27
Method Modifications:
Common Interval nm Changed: 13/10/2020 16:11:45, Old:     5.00, New:     1.00
Baseline Correction Changed: 13/10/2020 16:11:45, Old:0, New:1
Storage Changed: 13/10/2020 16:11:45, Old:1, New:0
End Method Modifications
<Current Wavelength> , 203.0

bm3-wt-heme-tgt-10uM,
bm3-wt-heme-tgt-10uM
Collection Time: 13/10/2020 16:14:05
Operator Name  :
Scan Software Version: 3.00(339)
Parameter List :
Instrument                        Cary 50
Instrument Version                3.00
Start (nm)                        800.0
Stop (nm)                         200.0
X Mode                            Nanometers
Y Mode                            Abs
UV-Vis Scan Rate (nm/min)         4800.00
UV-Vis Data Interval (nm)         1.00
UV-Vis Ave. Time (sec)            0.0125
Beam Mode                         Dual Beam
Baseline Correction               On
Baseline Type                     Baseline correction
Baseline File Name
Baseline Std Ref File Name
Cycle Mode                        Off
Comments
Method Log     :
Method Name    :
Date/Time stamp: 13/10/2020 16:11:27
Method Modifications:
Common Interval nm Changed: 13/10/2020 16:11:45, Old:     5.00, New:     1.00
Baseline Correction Changed: 13/10/2020 16:11:45, Old:0, New:1
Storage Changed: 13/10/2020 16:11:45, Old:1, New:0
End Method Modifications
<Current Wavelength> , 203.0

bm3-wt-heme-tgt-15uM,
bm3-wt-heme-tgt-15uM
Collection Time: 13/10/2020 16:14:29
Operator Name  :
Scan Software Version: 3.00(339)
Parameter List :
Instrument                        Cary 50
Instrument Version                3.00
Start (nm)                        800.0
Stop (nm)                         200.0
X Mode                            Nanometers
Y Mode                            Abs
UV-Vis Scan Rate (nm/min)         4800.00
UV-Vis Data Interval (nm)         1.00
UV-Vis Ave. Time (sec)            0.0125
Beam Mode                         Dual Beam
Baseline Correction               On
Baseline Type                     Baseline correction
Baseline File Name
Baseline Std Ref File Name
Cycle Mode                        Off
Comments
Method Log     :
Method Name    :
Date/Time stamp: 13/10/2020 16:11:27
Method Modifications:
Common Interval nm Changed: 13/10/2020 16:11:45, Old:     5.00, New:     1.00
Baseline Correction Changed: 13/10/2020 16:11:45, Old:0, New:1
Storage Changed: 13/10/2020 16:11:45, Old:1, New:0
End Method Modifications
<Current Wavelength> , 203.0

bm3-wt-heme-tgt-20uM,
bm3-wt-heme-tgt-20uM
Collection Time: 13/10/2020 16:14:47
Operator Name  :
Scan Software Version: 3.00(339)
Parameter List :
Instrument                        Cary 50
Instrument Version                3.00
Start (nm)                        800.0
Stop (nm)                         200.0
X Mode                            Nanometers
Y Mode                            Abs
UV-Vis Scan Rate (nm/min)         4800.00
UV-Vis Data Interval (nm)         1.00
UV-Vis Ave. Time (sec)            0.0125
Beam Mode                         Dual Beam
Baseline Correction               On
Baseline Type                     Baseline correction
Baseline File Name
Baseline Std Ref File Name
Cycle Mode                        Off
Comments
Method Log     :
Method Name    :
Date/Time stamp: 13/10/2020 16:11:27
Method Modifications:
Common Interval nm Changed: 13/10/2020 16:11:45, Old:     5.00, New:     1.00
Baseline Correction Changed: 13/10/2020 16:11:45, Old:0, New:1
Storage Changed: 13/10/2020 16:11:45, Old:1, New:0
End Method Modifications
<Current Wavelength> , 203.0

