baselien,,bm3WTHeme_5in1000,,
Wavelength (nm),Abs,Wavelength (nm),Abs,
800.0101318,-0.0004837463202,800.0101318,0.007211526856,
799.0389404,-0.001228001085,799.0389404,0.006730122026,
798.0673218,0.0008103391738,798.0673218,0.007018043194,
796.9564209,0.002037311438,796.9564209,0.007392747328,
795.9840088,9.50895701E-5,795.9840088,0.007299100049,
795.0111694,-0.0001675016829,795.0111694,0.006157057825,
794.0380249,0.001062104711,794.0380249,0.007499450818,
793.0644531,0.001895826659,793.0644531,0.008784085512,
791.951355,6.466796185E-5,791.951355,0.007067977916,
790.9769897,0.001188366557,790.9769897,0.006942204665,
790.0022583,-0.000446613878,790.0022583,0.007149785757,
789.0271606,-0.001018659794,789.0271606,0.005896182265,
788.0516968,-0.0005432654289,788.0516968,0.005758943502,
786.9364014,-0.0008547413745,786.9364014,0.007123549934,
785.960144,-0.0003405258176,785.960144,0.005376787391,
784.9835205,0.001153248362,784.9835205,0.008509933017,
784.0064697,-0.0001594282949,784.0064697,0.007440249901,
783.0291138,0.0002605686605,783.0291138,0.007736442145,
782.0513306,-8.852911378E-6,782.0513306,0.007932750508,
780.9334717,-0.0009754260536,780.9334717,0.007111155894,
779.9549561,-0.001166458824,779.9549561,0.007558423094,
778.9760132,0.0002038480598,778.9760132,0.008271622472,
777.9967651,-4.674754382E-5,777.9967651,0.007163417526,
777.0170898,-0.001050475403,777.0170898,0.006277193781,
776.0371094,-2.868070624E-5,776.0371094,0.006602554582,
775.0567017,0.0001984871778,775.0567017,0.008954600431,
773.9358521,0.0006615276798,773.9358521,0.00869328063,
772.9547119,-0.001283133868,772.9547119,0.007486519869,
771.9731445,0.002015543636,771.9731445,0.008257850073,
770.991272,0.001324479934,770.991272,0.006485455204,
770.0090332,0.0002908744791,770.0090332,0.005533725489,
769.0264282,-0.0009567778907,769.0264282,0.006630809046,
768.043396,-0.0002442430705,768.043396,0.007990779355,
767.0600586,-0.001048099599,767.0600586,0.005840871949,
765.935791,0.001147771953,765.935791,0.00753811514,
764.9517212,-0.0007940763608,764.9517212,0.008445103653,
763.9672241,1.884539415E-5,763.9672241,0.006098800804,
762.9823608,-0.00162791647,762.9823608,0.007349620108,
761.9971924,0.00131791085,761.9971924,0.008629268967,
761.0116577,0.0002607499482,761.0116577,0.0081216041,
760.0256958,0.001437416533,760.0256958,0.00884457957,
759.0394287,0.0008954380173,759.0394287,0.006933867,
758.0527954,-0.001188970171,758.0527954,0.008522604592,
757.0657959,0.0006422395818,757.0657959,0.008715359494,
755.9373779,0.0006916540442,755.9373779,0.009074798785,
754.949646,-0.0007902005455,754.949646,0.0077845091,
753.9615479,-0.0001270815119,753.9615479,0.008860536851,
752.9730835,-7.257819379E-5,752.9730835,0.01102736685,
751.9842529,0.001388462493,751.9842529,0.009470198303,
750.9950562,0.001073756022,750.9950562,0.009455780499,
750.0055542,0.001017733477,750.0055542,0.008693994023,
749.015625,0.001220113016,749.015625,0.008037582971,
748.0253906,0.0007640748518,748.0253906,0.008353445679,
747.03479,-0.0002885326685,747.03479,0.008032889105,
746.0438843,0.002008859999,746.0438843,0.008747978136,
745.0525513,0.00121961988,745.0525513,0.009171420708,
744.0609131,0.001376231317,744.0609131,0.009642280638,
743.0689087,0.0007111258456,743.0689087,0.01048957743,
741.9347534,-0.0005986919859,741.9347534,0.007551495917,
740.9420166,0.0001365440548,740.9420166,0.00810876023,
739.9489136,-8.137786062E-5,739.9489136,0.008919244632,
738.9554443,0.0002924027795,738.9554443,0.008458301425,
737.9616699,0.0004933042219,737.9616699,0.008796606213,
736.9675293,0.0004174305941,736.9675293,0.009453160688,
735.9730225,0.00112903316,735.9730225,0.009509144351,
734.9782104,0.00158654619,734.9782104,0.009678594768,
733.9830322,0.0001217846657,733.9830322,0.008916153572,
732.9874878,0.0004538887006,732.9874878,0.009060208686,
731.9915771,0.0001862376957,731.9915771,0.008806485683,
730.9953613,0.0004394553835,730.9953613,0.01005398575,
729.9987793,-0.0007819837192,729.9987793,0.008995165117,
729.0018921,0.0008006917196,729.0018921,0.009869321249,
728.0046387,-0.0007287512999,728.0046387,0.009277002886,
727.007019,-0.0002506074088,727.007019,0.009240351617,
726.0090942,-0.0007367107319,726.0090942,0.008843338117,
725.0108032,0.0007321542944,725.0108032,0.009472289123,
724.012146,0.0006259594229,724.012146,0.009778077714,
723.0131836,0.0007820717292,723.0131836,0.009413505904,
722.013855,-0.0005392839084,722.013855,0.009648711421,
721.0142212,0.0006888020434,721.0142212,0.009070913307,
720.0142212,0.0001937479101,720.0142212,0.008824449033,
719.013916,-0.0001285824546,719.013916,0.008368039504,
718.0131836,0.0006135941949,718.0131836,0.009825127199,
717.012207,0.0003167526447,717.012207,0.009392607957,
716.0108643,-0.001150245662,716.0108643,0.008134791628,
715.0091553,-0.0004077713529,715.0091553,0.009691829793,
714.0071411,-0.001482699416,714.0071411,0.008346453309,
713.0047607,0.0006388175534,713.0047607,0.01011235267,
712.0020752,-0.000498019217,712.0020752,0.008621981367,
710.9990234,0.0001135248094,710.9990234,0.009463743307,
709.9956665,0.0005621409509,709.9956665,0.01058616955,
708.9919434,6.378770922E-5,708.9919434,0.009444668889,
707.987915,0.000924361404,707.987915,0.009625288658,
706.9835815,0.0007515759789,706.9835815,0.00921010226,
705.9788208,0.0004632952332,705.9788208,0.009806036949,
704.9738159,0.0004668195033,704.9738159,0.008748400025,
703.9684448,-0.0005395941553,703.9684448,0.008227273822,
702.9627075,0.0008751279092,702.9627075,0.009206453338,
701.956665,-0.0003691322927,701.956665,0.009655619971,
700.9503174,7.89852711E-5,700.9503174,0.009967974387,
699.9436035,0.001385268406,699.9436035,0.009867653251,
698.9365845,0.0002203454787,698.9365845,0.009431758896,
697.9292603,0.0002394853364,697.9292603,0.009119075723,
697.0655518,-0.0009903026512,697.0655518,0.009554973803,
696.0575562,-0.0001309114887,696.0575562,0.008736488409,
695.0492554,-0.0005402146489,695.0492554,0.008266398683,
694.0406494,-0.0003186428803,694.0406494,0.009494221769,
693.0316772,-0.0004293394741,693.0316772,0.008370388299,
692.0223999,0.0003808978072,692.0223999,0.01025452558,
691.0128174,0.0003479950246,691.0128174,0.009209441021,
690.0028687,0.0003136958985,690.0028687,0.00967319496,
688.9926147,0.001116056694,688.9926147,0.009103717282,
687.9819946,-7.138763613E-5,687.9819946,0.009311302565,
686.9711304,-3.499641753E-5,686.9711304,0.009847713634,
685.9598389,-0.001404731651,685.9598389,0.007993415929,
684.9483032,-0.0003932885884,684.9483032,0.009051090106,
683.9364624,-0.0004186331353,683.9364624,0.009042446502,
683.0688477,0.0001947320125,683.0688477,0.009851871058,
682.0563965,-0.0005636375863,682.0563965,0.009664566256,
681.0435791,-0.0002435704228,681.0435791,0.009476415813,
680.0304565,-0.000533440907,680.0304565,0.009371024556,
679.0170288,-0.0004945027758,679.0170288,0.008869783953,
678.0032349,-0.0006910194643,678.0032349,0.01009142119,
676.9891357,-0.000723117555,676.9891357,0.01022791583,
675.9747314,-0.0001906341931,675.9747314,0.01042455807,
674.960022,-0.0006859538844,674.960022,0.009887514636,
673.9450073,-0.001490645111,673.9450073,0.0101509057,
672.9296265,-0.0003921506286,672.9296265,0.01062969957,
672.059082,2.738821786E-5,672.059082,0.01082862075,
671.0431519,0.0002911076008,671.0431519,0.01010864321,
670.0268555,0.0003750165633,670.0268555,0.01026401389,
669.0103149,-0.0001421942288,669.0103149,0.01078472659,
667.9934082,-6.165599916E-5,667.9934082,0.01094312686,
666.9761963,-0.001046395279,666.9761963,0.01002611686,
665.9586792,0.0002261469199,665.9586792,0.01101472881,
664.9407959,0.0005830066511,664.9407959,0.01193899289,
664.0681152,0.0002565539326,664.0681152,0.01202656608,
663.0497437,-0.0007621902623,663.0497437,0.01081619971,
662.0310059,-3.913781984E-5,662.0310059,0.01232955232,
661.0119629,0.0003894995607,661.0119629,0.01292594615,
659.9925537,0.00134387624,659.9925537,0.01349146198,
658.9729004,-0.0005399561487,658.9729004,0.01213625167,
657.9529419,0.0003681509115,657.9529419,0.01227490883,
656.9326172,-0.000365925167,656.9326172,0.01332748495,
656.0578613,-0.0001236655517,656.0578613,0.01345514785,
655.0369873,0.0002419199736,655.0369873,0.01308465004,
654.0158081,-0.0002165597834,654.0158081,0.01345245168,
652.9943237,-0.0002661814797,652.9943237,0.0139472764,
651.9725342,-0.0007674617227,651.9725342,0.01291151904,
650.9504395,-0.0001046702382,650.9504395,0.01343840733,
649.9280396,0.0005425721756,649.9280396,0.01373487245,
649.0514526,0.0001625943114,649.0514526,0.01371563599,
648.0284424,0.001077674562,648.0284424,0.01387719437,
647.005188,0.001340163057,647.005188,0.0140963532,
645.9815674,-0.0001064300595,645.9815674,0.01383830886,
644.9577026,-0.001405196148,644.9577026,0.01390368119,
643.9334717,-0.001209002337,643.9334717,0.01346067525,
643.0553589,0.0001666858443,643.0553589,0.01349119563,
642.0306396,-0.0002976383839,642.0306396,0.01333466545,
641.0055542,1.252898983E-5,641.0055542,0.01391159277,
639.9801636,-0.0004387008375,639.9801636,0.01386888232,
638.9545288,0.0003506893408,638.9545288,0.01361492649,
637.9285278,-0.0004210640618,637.9285278,0.01419613138,
637.0488892,0.0005287319655,637.0488892,0.01469357312,
636.0223999,-0.0005750124692,636.0223999,0.0137950452,
634.9955444,-0.0003772017953,634.9955444,0.01370342728,
633.9684448,0.0004012106801,633.9684448,0.01456289552,
632.940979,-0.0002632322721,632.940979,0.01433699951,
632.0601196,-0.0002620422456,632.0601196,0.01362488978,
631.0321045,7.351677141E-6,631.0321045,0.01458618417,
630.0038452,-0.0003740981629,630.0038452,0.01365571469,
628.9752808,-0.0007243580185,628.9752808,0.01298606023,
627.9464111,-0.001060753013,627.9464111,0.0130154267,
627.06427,-0.0005075342488,627.06427,0.0137012098,
626.0348511,0.0001321679738,626.0348511,0.01423023455,
625.005127,0.0002278303873,625.005127,0.01337582804,
623.9750977,-0.0004969332949,623.9750977,0.01365277637,
622.9448242,0.001125711133,622.9448242,0.01314486563,
622.0614624,-0.001230220892,622.0614624,0.01240966748,
621.0306396,-0.0004024438385,621.0306396,0.01444518194,
619.9994507,-0.000386098749,619.9994507,0.0131593002,
618.9680176,-0.0003811330243,618.9680176,0.01367879566,
617.9362793,-7.7081575E-5,617.9362793,0.01380870026,
617.0517578,6.870679499E-5,617.0517578,0.01453411952,
616.0194702,0.0006106130895,616.0194702,0.01445305068,
614.9868774,-0.0004711795773,614.9868774,0.01370430831,
613.9540405,-0.0005423346884,613.9540405,0.01374291442,
613.0685425,-0.0003026568156,613.0685425,0.01403146051,
612.0351563,-0.0004976572236,612.0351563,0.01388964895,
611.0014648,-0.0001874774898,611.0014648,0.01378676109,
609.9674683,-0.000409840286,609.9674683,0.01563287154,
608.9332275,-0.0003130038385,608.9332275,0.01489913277,
608.0465088,-0.001227794564,608.0465088,0.01427396946,
607.0117188,-0.0009077516734,607.0117188,0.01405033655,
605.9766235,0.0002553365775,605.9766235,0.01542404108,
604.9412842,-0.0003038467257,604.9412842,0.01555889565,
604.0535889,-0.0004692143702,604.0535889,0.01548865996,
603.0177002,-0.0004308910866,603.0177002,0.0159280207,
601.9815674,6.008548735E-5,601.9815674,0.01662953012,
600.9450684,-0.0001286859624,600.9450684,0.01637873985,
600.0564575,-0.0006720490055,600.0564575,0.01672311313,
599.0194702,0.0003166231327,599.0194702,0.01714161597,
597.9822388,0.0003184623783,597.9822388,0.01815470122,
596.9446411,0.0004646427406,596.9446411,0.01887455396,
596.0551147,6.073272743E-5,596.0551147,0.01873777434,
595.0170288,-0.000374201627,595.0170288,0.01965770312,
593.9786987,0.000237361528,593.9786987,0.01964318566,
592.9400635,4.426726082E-5,592.9400635,0.02075715549,
592.0495605,0.0001076730914,592.0495605,0.02042720653,
591.010437,-0.0001730908552,591.010437,0.02152281813,
589.9710083,-0.001817889162,589.9710083,0.02087135054,
588.9312744,-0.00103322498,588.9312744,0.02210664935,
588.039917,3.839058627E-5,588.039917,0.02406613342,
586.9996948,-0.001212254865,586.9996948,0.02450377308,
585.9591675,0.0002631588141,585.9591675,0.02636788413,
585.0670776,-0.0004992086324,585.0670776,0.02712408639,
584.026062,0.0001581402757,584.026062,0.02858694829,
582.9848022,-0.0006250067963,582.9848022,0.02972823195,
581.9432373,-0.0004189434694,581.9432373,0.03036356531,
581.0502319,0.000203666772,581.0502319,0.03199503198,
580.0081787,-0.0005667398218,580.0081787,0.03300483525,
578.9658203,-0.0004736619012,578.9658203,0.03511601314,
578.0721436,-0.0001631027408,578.0721436,0.03561205417,
577.0292969,-0.001031572232,577.0292969,0.03588963673,
575.9862061,-0.0009155012085,575.9862061,0.03734457493,
574.9428101,-0.0002835141204,574.9428101,0.03884205222,
574.0482178,-0.0009733597981,574.0482178,0.03873596713,
573.0043335,-0.0008059620159,573.0043335,0.04017066956,
571.960144,-0.001188092516,571.960144,0.03995773569,
571.0649414,0.0002309642441,571.0649414,0.04180458188,
570.0202637,-0.0002486411831,570.0202637,0.04141417146,
568.9753418,-7.702980656E-5,568.9753418,0.04168343917,
567.9301147,-0.0003411983198,567.9301147,0.04141926765,
567.0339966,-0.0006423768355,567.0339966,0.04104012996,
565.9882813,0.0005791444564,565.9882813,0.04218550026,
564.9423218,1.995853927E-5,564.9423218,0.04109834507,
564.0455933,0.0009469048236,564.0455933,0.04194728285,
562.9990845,-0.001139608794,562.9990845,0.03954277933,
561.9523926,0.0001286723273,561.9523926,0.04054609314,
561.0549927,0.00013159831,561.0549927,0.04002071545,
560.0077515,0.0006228745915,560.0077515,0.03989737481,
558.9602661,0.0005187797942,558.9602661,0.03964526206,
558.0621948,0.001030058367,558.0621948,0.03941912204,
557.0142212,-0.000208642552,557.0142212,0.038587071,
555.9659424,-0.0004715932882,555.9659424,0.03819346428,
555.0672607,-0.0004008921096,555.0672607,0.03954014555,
554.0185547,-0.0003989265824,554.0185547,0.03888103366,
552.9695435,-6.848887278E-5,552.9695435,0.03992725536,
552.0701904,0.0002630811068,552.0701904,0.03962447494,
551.020752,-0.0002370507573,551.020752,0.03969625756,
549.9710083,7.398839807E-5,549.9710083,0.04119035229,
549.0710449,4.659499155E-6,549.0710449,0.0408394523,
548.020813,0.0001545926352,548.020813,0.04167038947,
546.9703369,-2.847447149E-6,546.9703369,0.0429520607,
546.0697021,6.606601528E-5,546.0697021,0.04256655648,
545.0187988,0.000148999301,545.0187988,0.04280636832,
543.9675903,0.0005485074944,543.9675903,0.04312584177,
543.0663452,-0.0004505444667,543.0663452,0.04322382435,
542.0146484,-0.0001245971798,542.0146484,0.04354263097,
540.9627075,-0.0005866973079,540.9627075,0.04382960126,
540.0608521,0.0001680842252,540.0608521,0.04406131804,
539.0084229,-0.001756945974,539.0084229,0.04288930818,
537.9557495,-0.0002758050687,537.9557495,0.04449500889,
537.0532837,-9.669920837E-5,537.0532837,0.04441483319,
536.0001221,-0.0004618706298,536.0001221,0.04391843453,
534.9467163,-2.847447149E-6,534.9467163,0.04431663826,
534.0436401,-0.0002744598314,534.0436401,0.0442892313,
532.9897461,-0.0010370987,532.9897461,0.04302019253,
531.9356689,-0.0005407317658,531.9356689,0.04297220707,
531.0319214,-0.001016335445,531.0319214,0.04239930212,
529.977356,-0.0008556714165,529.977356,0.04217879847,
529.0732422,-0.0003007425694,529.0732422,0.04298486561,
528.0181885,-0.0008419269579,528.0181885,0.04154953733,
526.9628906,-0.0007074564928,526.9628906,0.0431940034,
526.0581665,-0.001355807646,526.0581665,0.04050872475,
525.0023804,-0.0009310514433,525.0023804,0.04023956135,
523.9464111,0.0001259535056,523.9464111,0.04082338512,
523.0410767,9.237095946E-5,523.0410767,0.04074473307,
521.9846191,-0.0001419872133,521.9846191,0.04009029269,
520.9279175,-0.000234825784,520.9279175,0.03955794871,
520.0219727,-0.0007900971686,520.0219727,0.03901263699,
518.9647827,-0.0003814951051,518.9647827,0.03886792436,
518.0584717,-0.0002409315202,518.0584717,0.03906004876,
517.0008545,-0.0007988823345,517.0008545,0.03777107224,
515.9429932,-0.0006064470508,515.9429932,0.03727086633,
515.0360718,-0.000387650507,515.0360718,0.03725197166,
513.9777222,-0.0003859952849,513.9777222,0.036701601,
513.0704346,-0.0001001153869,513.0704346,0.03748666495,
512.0116577,-0.0007905106177,512.0116577,0.0366467312,
510.9526672,-8.789985441E-5,510.9526672,0.03625293821,
510.0447693,-0.001124375733,510.0447693,0.03488769755,
508.985321,-7.7081575E-5,508.985321,0.03575838357,
507.9256287,0.0002461676486,507.9256287,0.03574399278,
507.0171204,8.147078188E-5,507.0171204,0.03610646725,
505.9570007,-1.061311741E-5,505.9570007,0.03527832031,
505.0481262,-0.001124479109,505.0481262,0.03465790674,
503.9875488,9.449406207E-5,503.9875488,0.03477180749,
502.9267273,0.0002584706235,502.9267273,0.03426551819,
502.0172729,-0.0007159331581,502.0172729,0.03342974558,
500.9560242,-0.0007393466076,500.9560242,0.03359117359,
500.0462036,0.000144312362,500.0462036,0.03417721018,
498.9844971,-0.0003264546394,498.9844971,0.03384113684,
498.0742798,-0.0001533731556,498.0742798,0.03392481431,
497.012146,-0.0002543845621,497.012146,0.0334042497,
495.9497986,-0.0001959125802,495.9497986,0.03525187448,
495.0390015,-0.0001957573404,495.0390015,0.03376013041,
493.9762268,0.000318876846,493.9762268,0.03377526626,
493.0650635,0.0003287985746,493.0650635,0.03401338309,
492.0018311,-0.0003546999651,492.0018311,0.03318814933,
490.9383545,-0.0003473543038,490.9383545,0.0337231718,
490.0266418,-0.0003001217265,490.0266418,0.03367086127,
488.9627686,0.0005334749003,488.9627686,0.03419532999,
488.0506592,0.0004731943482,488.0506592,0.03402446583,
486.9863586,-0.0006193200825,486.9863586,0.03362722322,
486.0738831,-0.0001330852538,486.0738831,0.03427095339,
485.0091553,-0.0007411038387,485.0091553,0.03364045545,
483.9441833,-6.232893793E-5,483.9441833,0.0346676074,
483.0311584,-0.0004554059706,483.0311584,0.03424546495,
481.9657593,8.532853099E-5,481.9657593,0.0346644707,
481.0523682,-7.920384087E-5,481.0523682,0.03502940759,
479.9865417,-0.000647649751,479.9865417,0.03534705564,
479.0728149,7.388483937E-5,479.0728149,0.03687445074,
478.0065918,-0.0005325101665,478.0065918,0.03577018902,
476.9401245,-8.857274952E-5,476.9401245,0.03671850264,
476.0258179,0.0001330483647,476.0258179,0.03742221743,
474.9589233,0.000329187169,474.9589233,0.03798946366,
474.044281,-0.0004280981666,474.044281,0.03773473203,
472.9769897,-0.0005859734374,472.9769897,0.03901725635,
472.0619812,0.0001263160084,472.0619812,0.03959731013,
470.9942627,0.0003071420651,470.9942627,0.04017208889,
469.9263306,-0.0002536084212,469.9263306,0.04135901481,
469.0108032,-0.0003191084834,469.0108032,0.04151945934,
467.9424438,0.000182534437,467.9424438,0.04280816764,
467.0265503,-0.0001204565924,467.0265503,0.04340692982,
465.9577942,4.659476929E-7,465.9577942,0.04460125044,
465.0415344,0.0002243080671,465.0415344,0.04595706984,
463.9723816,-0.0001494916214,463.9723816,0.04738532379,
463.0557861,-0.0003811847419,463.0557861,0.04773577675,
461.9862061,-0.0001190591356,461.9862061,0.04974380136,
461.0692749,0.001038283808,461.0692749,0.05073552206,
459.9992981,-7.268171612E-5,459.9992981,0.05225264281,
458.9291077,0.0001364663767,458.9291077,0.05429461598,
458.0116272,-0.0005300798803,458.0116272,0.05562585965,
456.94104,0.0003137995081,456.94104,0.05794923007,
456.0232239,7.051910507E-5,456.0232239,0.05972561985,
454.95224,-4.172617628E-5,454.95224,0.06154110283,
454.0340576,5.791077274E-5,454.0340576,0.06410123408,
452.962677,0.0004163423146,452.962677,0.06673202664,
452.0441589,6.334758655E-5,452.0441589,0.06900327653,
450.9723816,-0.0002393274772,450.9723816,0.07199377567,
450.0535583,-2.790417784E-5,450.0535583,0.07475403696,
448.9813538,8.789175627E-5,448.9813538,0.07836543769,
448.0621948,-0.0002294961159,448.0621948,0.08215098828,
446.989624,-0.0002042957785,446.989624,0.08615354449,
446.0700989,-2.950900125E-5,446.0700989,0.08574060351,
444.9971313,0.0006158235483,444.9971313,0.09495033324,
443.9239502,0.0004131812311,443.9239502,0.1010313258,
443.0039368,-0.0003841331636,443.0039368,0.1055185944,
441.9303589,-0.0004632152559,441.9303589,0.1119190007,
441.0100098,-0.0006585571682,441.0100098,0.1190436855,
439.9360657,-0.0001104155017,439.9360657,0.1286011934,
439.0153809,-0.0002404140832,439.0153809,0.1350068301,
437.94104,2.995109753E-5,437.94104,0.1442870051,
437.0200195,-1.040603456E-5,437.0200195,0.1553422511,
435.945282,-0.0007052855799,435.945282,0.1659455448,
435.0239563,-0.0002777711488,435.0239563,0.1788999587,
433.9488525,-0.0002493655775,433.9488525,0.1905822754,
433.0271606,-1.506537228E-5,433.0271606,0.2052469701,
431.9516907,0.0005855468917,431.9516907,0.2199952006,
431.0296936,0.0002422307734,431.0296936,0.2342687547,
429.9538269,4.248095138E-5,429.9538269,0.2519797683,
429.0315247,0.0004054081219,429.0315247,0.2639963329,
427.9552917,0.000280539185,427.9552917,0.2805837691,
427.0326538,-0.0001092250532,427.0326538,0.2944226563,
425.9560242,4.426726082E-5,425.9560242,0.3097519577,
425.0330811,0.0003599122865,425.0330811,0.3201623559,
423.9560852,6.419767487E-6,423.9560852,0.3347045481,
423.0328064,3.253987961E-5,423.0328064,0.3422059715,
421.9554443,-9.090200911E-5,421.9554443,0.3503012359,
421.0318604,-2.510866398E-5,421.0318604,0.3559857309,
419.9541321,6.36323748E-5,419.9541321,0.3559993505,
419.0302124,0.0004943926469,419.0302124,0.3585794866,
417.9521484,0.0007337878342,417.9521484,0.356626302,
417.0278931,-4.514278407E-5,417.0278931,0.3530648351,
415.9494629,0.0002781302319,415.9494629,0.3478909731,
415.0249023,-0.0001416249288,415.0249023,0.3393812478,
413.946106,0.0003482281754,413.946106,0.3305817544,
413.0212402,-2.464274257E-5,413.0212402,0.3239111304,
411.9420776,-2.805948316E-5,411.9420776,0.3129719794,
411.0169067,0.0001436908933,411.0169067,0.3041201234,
409.9373779,-3.675791959E-6,409.9373779,0.2930416167,
409.0119019,-0.0009368890896,409.0119019,0.2838645875,
407.9320068,0.0001475233003,407.9320068,0.2751010954,
407.0062256,-0.0002278402826,407.0062256,0.2684615552,
405.9259644,-3.007845407E-5,405.9259644,0.2589874864,
404.9998779,8.405987319E-5,404.9998779,0.2527974844,
404.0736694,0.0001810583199,404.0736694,0.2446123511,
402.9928894,0.0010149054,402.9928894,0.2375658303,
402.0663452,0.0002290217672,402.0663452,0.2329396456,
400.9852295,-0.0001110366065,400.9852295,0.226877749,
400.0584106,-0.0003768397146,400.0584106,0.2209096551,
398.9769287,-0.0003593556175,398.9769287,0.2161327899,
398.0498047,-0.0005712381098,398.0498047,0.2107671648,
396.9679871,-0.0002656123252,396.9679871,0.2057708353,
396.0405579,-0.0001376397704,396.0405579,0.2022383213,
394.958374,0.0002109441994,394.958374,0.1977131218,
394.0306702,0.0001284910686,394.0306702,0.1923231781,
392.9481506,-0.0002558333217,392.9481506,0.1879274994,
392.0201111,-0.001354826964,392.0201111,0.1830033511,
390.9372559,0.0002019316016,390.9372559,0.1799330413,
390.0089417,0.0001768630609,390.0089417,0.1763878018,
388.9257507,-0.0003542343911,388.9257507,0.1709096879,
387.9971619,-0.0002356536861,387.9971619,0.1675408334,
387.0684204,-0.0001068958954,387.0684204,0.1644822359,
385.9847107,-0.001009310945,385.9847107,0.1606853306,
385.0556946,0.0001585028222,385.0556946,0.1580477506,
383.9716492,-0.0007196029183,383.9716492,0.1541700065,
383.0423279,-0.0001502161758,383.0423279,0.1523172259,
381.9579468,6.648025737E-5,381.9579468,0.1494875997,
381.0283508,2.316855898E-5,381.0283508,0.1478835046,
379.943634,-0.0003894091933,379.943634,0.1455862075,
379.0137634,0.0003476841375,379.0137634,0.1438435763,
377.9287109,0.0005127152544,377.9287109,0.1425491422,
376.9985352,-9.136785957E-5,376.9985352,0.141696021,
376.0682373,-0.000178317714,376.0682373,0.1412872672,
374.9827271,-0.0006804229924,374.9827271,0.1404518485,
374.052124,0.000198823851,374.052124,0.1404209733,
372.9662781,0.0001549033768,372.9662781,0.1396892965,
372.0354004,0.0008563750307,372.0354004,0.1409073621,
370.9492493,0.0005931158666,370.9492493,0.1394880563,
370.0180969,9.532259719E-5,370.0180969,0.1398773342,
368.9315796,-0.0003128486569,368.9315796,0.1394153684,
368.0001831,0.0004664307926,368.0001831,0.1398563981,
367.068634,0.0003821932478,367.068634,0.1393649429,
365.9816589,5.457104999E-5,365.9816589,0.1396151036,
365.0498352,-0.0001247006876,365.0498352,0.138689369,
363.9625244,-0.001159539912,363.9625244,0.1378320754,
363.030426,-0.0003552172566,363.030426,0.1381785572,
361.9428406,0.0004297124979,361.9428406,0.1381710768,
361.0104675,-0.0003433710081,361.0104675,0.1372478753,
359.9225159,-0.0006911745295,359.9225159,0.1358411759,
358.9898987,-0.0001901166979,358.9898987,0.1352754235,
358.0571289,0.0001882835641,358.0571289,0.134428367,
356.96875,-6.471444067E-6,356.96875,0.1327224374,
356.0357056,-0.0005805963883,356.0357056,0.1310711056,
354.9470215,0.0002764206729,354.9470215,0.1296880096,
354.0137024,-9.468055214E-5,354.0137024,0.128030315,
352.9247131,3.02099761E-5,352.9247131,0.125867337,
351.9911194,-0.0001742811437,351.9911194,0.12419682,
351.0574341,0.0003909245715,351.0574341,0.1223710999,
349.9679871,-0.0004049782874,349.9679871,0.119596459,
349.0340271,0.0004684520536,349.0340271,0.1185343415,
347.9442749,-0.0002707863459,347.9442749,0.1151578501,
347.0100708,-0.0002573338279,347.0100708,0.1126256585,
346.0757141,-0.000550349243,346.0757141,0.1109757274,
344.9855347,-0.0004465104139,344.9855347,0.1093806624,
344.0509338,-0.0002452261979,344.0509338,0.1083932742,
342.9604187,0.0003497825819,342.9604187,0.1055717692,
342.0255737,-0.0008131965878,342.0255737,0.1030832082,
340.9347534,-0.0002016566432,340.9347534,0.1007520556,
339.9996643,6.446084444E-5,339.9996643,0.09953542054,
339.0644226,0.0004227682657,339.0644226,0.09747608006,
337.973175,0.0002125499159,337.973175,0.0957217887,
337.0377197,-2.288259384E-5,337.0377197,0.09380128235,
335.946167,-6.357128586E-5,335.946167,0.09169628471,
335.010437,0.0002215886343,335.010437,0.09079734981,
334.074585,0.0002711365814,334.074585,0.08954913169,
332.9826355,0.0006083837943,332.9826355,0.08666293323,
332.0465393,0.0005205162452,332.0465393,0.0854383409,
330.9542847,0.0006514427951,330.9542847,0.08386741579,
330.0179138,0.000338901853,330.0179138,0.08264628053,
328.9253845,7.144586107E-6,328.9253845,0.08046684414,
327.9888,-0.0004134091723,327.9888,0.07876573503,
327.0520935,0.0001611700573,327.0520935,0.07866255939,
325.9591064,0.0001531942835,325.9591064,0.07621391863,
325.0221558,-5.539561698E-6,325.0221558,0.07558108866,
323.928894,-0.0003597694449,323.928894,0.07416966558,
322.9916992,-2.899218771E-6,322.9916992,0.07337468863,
322.0544128,-0.0005074825604,322.0544128,0.07219908386,
320.9607544,0.0004258776025,320.9607544,0.07153196633,
320.0231934,3.378250403E-5,320.0231934,0.07082826644,
318.9292603,-0.0001406415831,318.9292603,0.07100372761,
317.9914551,-0.00043864912,317.9914551,0.07012266666,
317.0535583,0.0007984095719,317.0535583,0.07008722425,
315.959198,-0.0008250816609,315.959198,0.06978484243,
315.0210876,-0.0006226804107,315.0210876,0.07015518844,
313.9264526,-0.0001320501324,313.9264526,0.07150614262,
312.9880676,0.0001578554366,312.9880676,0.07279069722,
312.0495911,0.0001597975934,312.0495911,0.07412099838,
310.9545593,-0.0004895383026,310.9545593,0.07549379021,
310.0158386,-0.0002551089274,310.0158386,0.07707677037,
309.0770264,-9.742385737E-5,309.0770264,0.08119399101,
307.9815979,0.0001139132,307.9815979,0.08628525585,
307.0425415,0.0003146802774,307.0425415,0.09192017466,
305.9468689,2.32203347E-5,305.9468689,0.1001813412,
305.0075684,6.961295003E-5,305.0075684,0.107058838,
304.0681763,-0.0001293070527,304.0681763,0.1167787537,
302.9721069,-0.0003334902867,302.9721069,0.1305015534,
302.0325012,0.0002554142848,302.0325012,0.1420655102,
300.9361267,0.0001055758112,300.9361267,0.1594195962,
299.9963074,0.0005879056989,299.9963074,0.1726140529,
299.056366,3.696673593E-5,299.056366,0.1926658005,
297.9596252,0.0001500092039,297.9596252,0.2149419934,
297.0194397,-0.0003094341373,297.0194397,0.2435609698,
295.9224548,0.0001117899956,295.9224548,0.2687336206,
294.9820557,8.92639946E-5,294.9820557,0.3089433312,
294.0415649,0.0001085793265,294.0415649,0.3434071541,
292.9442139,0.0001403505157,292.9442139,0.3776709139,
292.003479,0.0003147061798,292.003479,0.3979161084,
291.0626831,-0.0001063265445,291.0626831,0.4148111045,
289.9649353,-0.000151613538,289.9649353,0.4446408749,
289.0238953,-4.291681398E-5,289.0238953,0.4811263382,
287.9259033,0.0005311423447,287.9259033,0.520580709,
286.9846497,0.0001205935841,286.9846497,0.5559169054,
286.0433044,9.899922588E-5,286.0433044,0.5780753493,
284.9449463,0.0002474108769,284.9449463,0.6012504697,
284.0033569,0.0001611700573,284.0033569,0.6123066545,
283.0617065,9.607345419E-5,283.0617065,0.6242287755,
281.9629822,-0.000141159122,281.9629822,0.6370561123,
281.0211182,-0.0002778746129,281.0211182,0.6479622722,
279.9221191,-0.0004474930756,279.9221191,0.6559597254,
278.9800415,5.866156425E-5,278.9800415,0.6597326398,
278.0378723,-0.0008372765151,278.0378723,0.6618878245,
276.9385376,-0.0002750807034,276.9385376,0.6624888778,
275.9961548,-0.0006651222357,275.9961548,0.6617205739,
275.0536804,5.941235941E-5,275.0536804,0.659848094,
273.9539795,0.0005956302048,273.9539795,0.6554756165,
273.0112915,-7.035236194E-5,273.0112915,0.6499797702,
272.068512,-0.0007358837756,272.068512,0.6489316821,
270.9684753,-0.0004186848528,270.9684753,0.6456540227,
270.0254822,-5.549596972E-5,270.0254822,0.6415663362,
268.9252014,0.0003550157999,268.9252014,0.6298412681,
267.9820251,-0.0005500906846,267.9820251,0.6206916571,
267.0387573,0.0004559876688,267.0387573,0.6166557074,
265.9381409,-0.0005150323268,265.9381409,0.6056877971,
264.9946594,0.001151898643,264.9946594,0.5942613482,
264.0510864,0.0005451121833,264.0510864,0.5823723674,
262.9501343,-0.000336387282,262.9501343,0.5735415816,
262.0063477,0.0005611819215,262.0063477,0.5695304275,
261.0625,0.000178572227,261.0625,0.5652336478,
259.9612122,0.0005645514466,259.9612122,0.5579198003,
259.0171509,-0.0003387152101,259.0171509,0.5427874327,
258.072998,-0.0003905471531,258.072998,0.5301376581,
256.9713745,-0.0004807468795,256.9713745,0.5179772377,
256.0270386,-0.0001841137419,256.0270386,0.5141814947,
254.9252014,-0.0004345115158,254.9252014,0.50886935,
253.9806671,0.0001857197494,253.9806671,0.5033357739,
253.0360413,-0.001417942229,253.0360413,0.4969429374,
251.9338837,0.0004589417658,251.9338837,0.4937534332,
250.9890747,-0.0002155248512,250.9890747,0.4935696423,
250.0441742,0.0001530389127,250.0441742,0.5001353621,
248.947998,5.74706537E-5,248.947998,0.5089128613,
248.0085449,1.485879966E-5,248.0085449,0.5217120051,
247.0690155,4.268805787E-5,247.0690155,0.5396911502,
245.9727936,-0.0001581344695,245.9727936,0.5758726597,
245.0330658,0.0002987491607,245.0330658,0.6108243465,
243.9366302,-0.0005499873077,243.9366302,0.6686876416,
242.9967346,-0.0001252182556,242.9967346,0.7384338379,
242.0567474,-0.001218140358,242.0567474,0.8197740912,
240.9600067,-0.0007104026736,240.9600067,0.9167546034,
240.0198364,-0.0005475570797,240.0198364,1.078791261,
238.9228821,-0.0003771500778,238.9228821,1.266268611,
237.9825439,-0.0004901071079,237.9825439,1.456213474,
237.0421143,-0.0001549257722,237.0421143,1.652265906,
235.9448547,-0.0009796618251,235.9448547,1.910635114,
235.0042572,0.0006262964453,235.0042572,2.244891644,
234.0635834,0.001120572444,234.0635834,2.340180397,
232.9660187,0.00015164059,232.9660187,2.524978638,
232.025177,0.0004476177855,232.025177,2.848441839,
230.9274139,0.001886805054,230.9274139,2.812860489,
229.9863892,-9.390414198E-5,229.9863892,2.29226613,
229.0452728,0.001298827236,229.0452728,3.260673046,
227.9472198,0.004377848934,227.9472198,2.9622159,
227.0059509,-0.009882315062,227.0059509,2.632565975,
226.0646057,-0.006833792664,226.0646057,2.644313574,
224.9662628,-0.01069359947,224.9662628,2.602583647,
224.0247345,9.928403597E-5,224.0247345,2.572388887,
222.9261932,0.007289360277,222.9261932,2.949853182,
221.9845123,0.005278542638,221.9845123,2.410608292,
221.0427551,-0.02012502402,221.0427551,2.110416889,
219.943924,0.02748905681,219.943924,1.873668909,
219.0019989,0.01639328338,219.0019989,1.84122777,
218.0599976,0.001826310414,218.0599976,1.887265205,
216.960907,-0.01652366854,216.960907,1.537415624,
216.0187378,0.006477625109,216.0187378,1.215708017,
215.0765076,-0.03847170994,215.0765076,1.321131706,
213.9771271,-0.01852894574,213.9771271,0.9838969111,
213.034729,-0.03207854554,213.034729,0.956746757,
211.9351807,0.1149697602,211.9351807,1.125874758,
210.9926147,0.006463279482,210.9926147,0.5790695548,
210.0499878,0.009145115502,210.0499878,0.289719075,
208.9501648,-0.01688614674,208.9501648,0.6748481989,
208.0073853,-0.002693400951,208.0073853,0.7897119522,
207.0645294,0.007671385538,207.0645294,0.4077732861,
205.9644318,0.03162681311,205.9644318,0.1832547635,
205.0214233,0.003422111506,205.0214233,0.5031237006,
204.0783539,0.02990501001,204.0783539,0.5090851784,
202.9779968,0.1229090914,202.9779968,0.179265365,
202.0347748,0.04726428911,202.0347748,0.3769949973,
200.9342499,0.09016942978,200.9342499,0.2774926424,
199.9907532,0.04323163256,199.9907532,0.02173174731,

baselien,
baselien
Collection Time: 17/11/2019 16:02:03
Operator Name  :
Scan Software Version: 3.00(339)
Parameter List :
Instrument                        Cary 50
Instrument Version                3.00
Start (nm)                        800.0
Stop (nm)                         200.0
X Mode                            Nanometers
Y Mode                            Abs
UV-Vis Scan Rate (nm/min)         4800.00
UV-Vis Data Interval (nm)         1.00
UV-Vis Ave. Time (sec)            0.0125
Beam Mode                         Dual Beam
Baseline Correction               On
Baseline Type                     Baseline correction
Baseline File Name
Baseline Std Ref File Name
Cycle Mode                        Off
Comments
Method Log     :
Method Name    :
Date/Time stamp: 17/11/2019 16:01:23
Method Modifications:
Common Interval nm Changed: 17/11/2019 16:01:45, Old:     5.00, New:     1.00
Baseline Correction Changed: 17/11/2019 16:01:45, Old:0, New:1
Storage Changed: 17/11/2019 16:01:45, Old:1, New:0
End Method Modifications
<Current Wavelength> , 203.0

bm3WTHeme_5in1000,
bm3WTHeme_5in1000
Collection Time: 17/11/2019 16:03:32
Operator Name  :
Scan Software Version: 3.00(339)
Parameter List :
Instrument                        Cary 50
Instrument Version                3.00
Start (nm)                        800.0
Stop (nm)                         200.0
X Mode                            Nanometers
Y Mode                            Abs
UV-Vis Scan Rate (nm/min)         4800.00
UV-Vis Data Interval (nm)         1.00
UV-Vis Ave. Time (sec)            0.0125
Beam Mode                         Dual Beam
Baseline Correction               On
Baseline Type                     Baseline correction
Baseline File Name
Baseline Std Ref File Name
Cycle Mode                        Off
Comments
Method Log     :
Method Name    :
Date/Time stamp: 17/11/2019 16:01:23
Method Modifications:
Common Interval nm Changed: 17/11/2019 16:01:45, Old:     5.00, New:     1.00
Baseline Correction Changed: 17/11/2019 16:01:45, Old:0, New:1
Storage Changed: 17/11/2019 16:01:45, Old:1, New:0
End Method Modifications
<Current Wavelength> , 203.0

