baseline,,bm3workinngstock,,
Wavelength (nm),Abs,Wavelength (nm),Abs,
800.0101318,0.0001491546718,800.0101318,-0.0001000118646,
799.0389404,-0.001531557646,799.0389404,0.002032161923,
798.0673218,0.001336839516,798.0673218,0.002062383574,
796.9564209,-0.00269468734,796.9564209,0.0002123945305,
795.9840088,-0.0001119165026,795.9840088,0.002255622763,
795.0111694,-0.000420391676,795.0111694,0.0005735974992,
794.0380249,-0.001307187718,794.0380249,-0.001529494068,
793.0644531,-0.001381973387,793.0644531,0.001414302271,
791.951355,-0.002017260762,791.951355,0.001630066079,
790.9769897,0.0002917810925,790.9769897,0.002059886698,
790.0022583,0.0003444976464,790.0022583,0.0008683581254,
789.0271606,0.0005127152544,789.0271606,0.002253385028,
788.0516968,0.001433416968,788.0516968,0.004271046724,
786.9364014,-0.001045414014,786.9364014,-0.0005945042358,
785.960144,-0.0003527342342,785.960144,0.002400686732,
784.9835205,0.0008109097253,784.9835205,0.002888023388,
784.0064697,-0.003520370694,784.0064697,0.0002868594602,
783.0291138,0.0005885018618,783.0291138,0.0004452079011,
782.0513306,-0.0003459575528,782.0513306,0.002035933081,
780.9334717,-0.0005879381206,780.9334717,0.002504947362,
779.9549561,8.209216321E-5,779.9549561,0.003308005631,
778.9760132,-0.001152879093,778.9760132,0.0008981875726,
777.9967651,-0.0006083081826,777.9967651,0.001373504754,
777.0170898,0.0004191666085,777.0170898,0.00311940792,
776.0371094,-0.001286540646,776.0371094,0.002880049404,
775.0567017,0.0002150102955,775.0567017,0.001926480909,
773.9358521,0.00033638897,773.9358521,9.943938494E-5,
772.9547119,-0.002073530108,772.9547119,0.0009562182822,
771.9731445,0.0005569829955,771.9731445,0.002296373248,
770.991272,-0.0003772017953,770.991272,0.001989876153,
770.0090332,3.665607801E-5,770.0090332,0.003295120317,
769.0264282,0.0004741013399,769.0264282,0.003135234118,
768.043396,0.00144692231,768.043396,0.003093257779,
767.0600586,-0.0005721170455,767.0600586,0.0005625038175,
765.935791,-0.0006314689526,765.935791,0.0007862987695,
764.9517212,-0.001236467622,764.9517212,0.001688012737,
763.9672241,-0.0001148667361,763.9672241,0.001218503574,
762.9823608,0.0005002236576,762.9823608,0.002056349535,
761.9971924,0.0006622535875,761.9971924,0.001875807764,
761.0116577,0.0003465183545,761.0116577,0.002300276887,
760.0256958,-0.0002155765978,760.0256958,0.002084621927,
759.0394287,0.001332710963,759.0394287,0.002760328585,
758.0527954,-0.000760226394,758.0527954,0.002945512533,
757.0657959,0.0005350040738,757.0657959,0.003063668264,
755.9373779,0.001226057648,755.9373779,0.00364469667,
754.949646,0.001100537367,754.949646,0.001777728321,
753.9615479,-0.001600166433,753.9615479,0.001255807816,
752.9730835,0.0003501971078,752.9730835,0.003291468835,
751.9842529,-0.0008349512354,751.9842529,0.002093777759,
750.9950562,-0.000454733643,750.9950562,0.002447594423,
750.0055542,-0.0005779595813,750.0055542,0.004103301093,
749.015625,0.0008893163758,749.015625,0.00101319293,
748.0253906,0.0002233497798,748.0253906,0.003568505403,
747.03479,0.00111411023,747.03479,0.003579885,
746.0438843,2.850138662E-5,746.0438843,0.00260964944,
745.0525513,0.0001221471757,745.0525513,0.003168740077,
744.0609131,-0.001455610967,744.0609131,0.003866742831,
743.0689087,0.000957567303,743.0689087,0.002676191973,
741.9347534,0.0008268596721,741.9347534,0.003558065742,
740.9420166,0.0005239113816,740.9420166,0.002961775754,
739.9489136,-0.0001505266991,739.9489136,0.00208124076,
738.9554443,-8.469063323E-5,738.9554443,0.003948942292,
737.9616699,-7.10770546E-5,737.9616699,0.003155937186,
736.9675293,0.0004358795122,736.9675293,0.003852456808,
735.9730225,0.00106960407,735.9730225,0.003472887212,
734.9782104,-0.001201619511,734.9782104,0.002069614129,
733.9830322,-0.0003584762162,733.9830322,0.001509961789,
732.9874878,-0.0006652773009,732.9874878,0.002503515454,
731.9915771,0.0005555315292,731.9915771,0.003151739016,
730.9953613,0.0005231857067,730.9953613,0.003229187336,
729.9987793,0.0003445753537,729.9987793,0.003036791692,
729.0018921,0.0002875070495,729.0018921,0.002487373538,
728.0046387,-0.0003890471125,728.0046387,0.003603793448,
727.007019,0.001008289051,727.007019,0.002163493074,
726.0090942,0.000549984863,726.0090942,0.002594050718,
725.0108032,-0.001013753004,725.0108032,0.003695628839,
724.012146,0.0003713635087,724.012146,0.004171483684,
723.0131836,0.0004431608249,723.0131836,0.003688083729,
722.013855,0.0007977093337,722.013855,0.002669289708,
721.0142212,0.001316664508,721.0142212,0.004515776411,
720.0142212,0.0003943446209,720.0142212,0.004082866479,
719.013916,0.0001146640861,719.013916,0.003084836993,
718.0131836,-0.0004168228479,718.0131836,0.002543091308,
717.012207,5.995604079E-5,717.012207,0.003649578197,
716.0108643,-0.000464870187,716.0108643,0.002365262248,
715.0091553,-0.001301871263,715.0091553,0.00259962352,
714.0071411,-0.001099330606,714.0071411,0.003491883865,
713.0047607,-0.001036788803,713.0047607,0.002504088217,
712.0020752,0.0006644313107,712.0020752,0.003511951305,
710.9990234,0.0001810583199,710.9990234,0.003161751898,
709.9956665,0.0001613513305,709.9956665,0.003270081244,
708.9919434,2.228839003E-5,708.9919434,0.002837680979,
707.987915,0.0001996784849,707.987915,0.003115079831,
706.9835815,0.0001493359305,706.9835815,0.003234403208,
705.9788208,0.0006168344989,705.9788208,0.003940531053,
704.9738159,0.0004966732231,704.9738159,0.003707272699,
703.9684448,0.0002531349892,703.9684448,0.003641407471,
702.9627075,-0.0001493881136,702.9627075,0.003026182298,
701.956665,9.925814084E-5,701.956665,0.0041399654,
700.9503174,0.000656524091,700.9503174,0.003511925228,
699.9436035,4.162663026E-5,699.9436035,0.002712475369,
698.9365845,7.631853805E-5,698.9365845,0.003576335264,
697.9292603,-0.0007608982269,697.9292603,0.003044325393,
697.0655518,-3.799893966E-5,697.0655518,0.003558326745,
696.0575562,0.00184294756,696.0575562,0.004264066927,
695.0492554,0.0005125597818,695.0492554,0.003764505032,
694.0406494,0.000101640202,694.0406494,0.004159879871,
693.0316772,0.0003390572965,693.0316772,0.003128455253,
692.0223999,0.0001935407345,692.0223999,0.003669757163,
691.0128174,0.0006253372412,691.0128174,0.003836473683,
690.0028687,-0.0007712860825,690.0028687,0.002814309672,
688.9926147,0.00122810842,688.9926147,0.004259544425,
687.9819946,0.0006237041089,687.9819946,0.004346158355,
686.9711304,0.000904854096,686.9711304,0.004666935187,
685.9598389,0.0004467367544,685.9598389,0.002674550982,
684.9483032,0.0003949405509,684.9483032,0.003357646056,
683.9364624,0.0003196022008,683.9364624,0.004118588287,
683.0688477,-9.923546168E-5,683.0688477,0.003604367608,
682.0563965,0.001358443522,682.0563965,0.004931157921,
681.0435791,0.0008963718428,681.0435791,0.004656652454,
680.0304565,0.0003219336504,680.0304565,0.004443145823,
679.0170288,2.534310261E-5,679.0170288,0.004062772729,
678.0032349,-0.0005018976517,678.0032349,0.003544807667,
676.9891357,0.0005719645415,676.9891357,0.003941053525,
675.9747314,-0.0005780629581,675.9747314,0.003331403481,
674.960022,0.0002224692143,674.960022,0.005234891549,
673.9450073,0.000189371247,673.9450073,0.004239416216,
672.9296265,0.0005235744175,672.9296265,0.004241533577,
672.059082,0.00013159831,672.059082,0.004901992623,
671.0431519,2.712934293E-5,671.0431519,0.004530424718,
670.0268555,0.0009360609693,670.0268555,0.004494433291,
669.0103149,0.0001170462347,669.0103149,0.005683219526,
667.9934082,-0.000834899547,667.9934082,0.004953753203,
666.9761963,-0.0007093689055,666.9761963,0.005294081289,
665.9586792,0.0002966509492,665.9586792,0.004598805215,
664.9407959,0.001091039157,664.9407959,0.005231930874,
664.0681152,-0.0005963654839,664.0681152,0.004887750838,
663.0497437,-0.0003692875034,663.0497437,0.005889674649,
662.0310059,-0.0008506593877,662.0310059,0.004045684356,
661.0119629,0.0003636947949,661.0119629,0.005636275746,
659.9925537,-0.0001102602255,659.9925537,0.0056633926,
658.9729004,-0.0001503714448,658.9729004,0.005946302786,
657.9529419,0.0009342450649,657.9529419,0.005649178289,
656.9326172,-0.0006283154362,656.9326172,0.00618788274,
656.0578613,0.0009353865171,656.0578613,0.007138759829,
655.0369873,0.000128620537,655.0369873,0.005678866059,
654.0158081,0.0007648009341,654.0158081,0.006746159401,
652.9943237,0.0008251479594,652.9943237,0.006287567783,
651.9725342,0.0001427327952,651.9725342,0.006008345634,
650.9504395,0.001185122062,650.9504395,0.006826329045,
649.9280396,-1.801626058E-5,649.9280396,0.005958689842,
649.0514526,4.796934809E-5,649.0514526,0.005736883264,
648.0284424,-0.0001882019715,648.0284424,0.006451666355,
647.005188,-0.000821567839,647.005188,0.005916728172,
645.9815674,0.000561933557,645.9815674,0.00630771229,
644.9577026,0.0004942371743,644.9577026,0.006498724688,
643.9334717,0.0008026108262,643.9334717,0.006018660497,
643.0553589,-0.0004291842924,643.0553589,0.005590280984,
642.0306396,0.0002337355254,642.0306396,0.006808842532,
641.0055542,-0.0002729593834,641.0055542,0.006546917837,
639.9801636,-2.148482235E-5,639.9801636,0.007407650352,
638.9545288,0.0005281099584,638.9545288,0.006436375435,
637.9285278,-0.000664191728,637.9285278,0.004912307486,
637.0488892,0.0006660646177,637.0488892,0.006275250111,
636.0223999,5.746722763E-6,636.0223999,0.006929579657,
634.9955444,0.0004494057503,634.9955444,0.006382993422,
633.9684448,-0.0004287705524,633.9684448,0.006807422265,
632.940979,0.000403102109,632.940979,0.006055198144,
632.0601196,0.0004345839261,632.0601196,0.005935727153,
631.0321045,-9.835554374E-5,631.0321045,0.006239849608,
630.0038452,-0.0001809052337,630.0038452,0.006171157118,
628.9752808,-0.0002858423104,628.9752808,0.006360954139,
627.9464111,0.0003613371809,627.9464111,0.007407650352,
627.06427,0.0001083721872,627.06427,0.006545472424,
626.0348511,-0.0003801502171,626.0348511,0.006901515648,
625.005127,-0.0004775922862,625.005127,0.006300568115,
623.9750977,-7.0973525E-5,623.9750977,0.005972205196,
622.9448242,-0.0003536136355,622.9448242,0.005893505644,
622.0614624,0.000596511527,622.0614624,0.006737299729,
621.0306396,0.0005212937249,621.0306396,0.006915955339,
619.9994507,0.0007994987536,619.9994507,0.006366627757,
618.9680176,-0.0005139981513,618.9680176,0.006542030256,
617.9362793,-0.0004566471907,617.9362793,0.0062609897,
617.0517578,-0.0009128663805,617.0517578,0.005628120154,
616.0194702,0.0001021839344,616.0194702,0.006385094952,
614.9868774,0.0002144405298,614.9868774,0.00635709241,
613.9540405,0.0005734160659,613.9540405,0.006430989597,
613.0685425,-8.013556362E-5,613.0685425,0.006330983248,
612.0351563,0.0009213003796,612.0351563,0.006284678821,
611.0014648,0.0001032196233,611.0014648,0.005733079743,
609.9674683,-7.682276191E-5,609.9674683,0.006555143278,
608.9332275,0.0002938015386,608.9332275,0.007745085284,
608.0465088,-0.0001416766754,608.0465088,0.006993551273,
607.0117188,-0.001091222861,607.0117188,0.006299386267,
605.9766235,-0.0003379909613,605.9766235,0.007258193567,
604.9412842,0.0001672814542,604.9412842,0.007357597351,
604.0535889,-0.0009970692918,604.0535889,0.006318218075,
603.0177002,0.0007550767041,603.0177002,0.008151118644,
601.9815674,-0.0002646292851,601.9815674,0.007840805687,
600.9450684,9.630648128E-5,600.9450684,0.007951283827,
600.0564575,-0.0006265577395,600.0564575,0.007180734072,
599.0194702,0.0001405317744,599.0194702,0.008184486069,
597.9822388,-0.0005693767453,597.9822388,0.008703474887,
596.9446411,-0.000969020708,596.9446411,0.007919542491,
596.0551147,-0.0002319798514,596.0551147,0.008706696332,
595.0170288,0.0002787259873,595.0170288,0.008649813011,
593.9786987,0.001570880064,593.9786987,0.009980953299,
592.9400635,0.0006985507207,592.9400635,0.01054222044,
592.0495605,-0.0004312531382,592.0495605,0.01055786945,
591.010437,-0.000349526963,591.010437,0.01177559979,
589.9710083,-0.001691198326,589.9710083,0.00993621815,
588.9312744,0.0001866002567,588.9312744,0.01283811033,
588.039917,-0.0001955503394,588.039917,0.01264924742,
586.9996948,-0.0002878083615,586.9996948,0.01328392513,
585.9591675,-0.0006262475508,585.9591675,0.01379443053,
585.0670776,0.0001858233445,585.0670776,0.01448762789,
584.026062,0.0007234160439,584.026062,0.01624782197,
582.9848022,-0.0005669466336,582.9848022,0.01575050503,
581.9432373,4.758101568E-5,581.9432373,0.01759014651,
581.0502319,0.0002807982091,581.0502319,0.01778923534,
580.0081787,0.0004448192194,580.0081787,0.01954309642,
578.9658203,-0.0003015703405,578.9658203,0.01983666047,
578.0721436,0.0003564665967,578.0721436,0.02183784172,
577.0292969,-0.0002262361959,577.0292969,0.0213715788,
575.9862061,-0.0006506997161,575.9862061,0.02201753668,
574.9428101,2.756943104E-5,574.9428101,0.02305386588,
574.0482178,0.0003826596076,574.0482178,0.02415481955,
573.0043335,-7.904855011E-5,573.0043335,0.02446430735,
571.960144,0.0002482915006,571.960144,0.02486018836,
571.0649414,0.00018346672,571.0649414,0.02557428181,
570.0202637,-0.0003434744722,570.0202637,0.0243027322,
568.9753418,0.00019162432,568.9753418,0.02483206615,
567.9301147,-0.0002989835339,567.9301147,0.0247576274,
567.0339966,-0.0002009321761,567.0339966,0.02418588102,
565.9882813,2.026918628E-5,565.9882813,0.0242906604,
564.9423218,8.447412984E-5,564.9423218,0.02426134236,
564.0455933,-0.001469645533,564.0455933,0.0227151569,
562.9990845,0.0002265613148,562.9990845,0.02341993898,
561.9523926,0.0003195762984,561.9523926,0.0233613681,
561.0549927,-2.262374619E-5,561.0549927,0.02301434055,
560.0077515,0.0002996816766,560.0077515,0.02262242883,
558.9602661,-6.771241169E-5,558.9602661,0.02303707786,
558.0621948,-2.34002855E-5,558.0621948,0.0227586925,
557.0142212,7.336703129E-5,557.0142212,0.02261833847,
555.9659424,0.0001097444838,555.9659424,0.02223231457,
555.0672607,5.731531564E-5,555.0672607,0.02256982774,
554.0185547,-0.000317970349,554.0185547,0.02186555229,
552.9695435,-4.747227285E-5,552.9695435,0.02220098302,
552.0701904,-0.0001963265677,552.0701904,0.02243913151,
551.020752,-5.798069833E-5,551.020752,0.02275408246,
549.9710083,5.073946159E-5,549.9710083,0.02336123213,
549.0710449,0.0001839846518,549.0710449,0.02319829166,
548.020813,6.692038733E-5,548.020813,0.023632925,
546.9703369,3.569821638E-5,546.9703369,0.02408750169,
546.0697021,2.490301631E-5,546.0697021,0.02417498827,
545.0187988,6.122462946E-5,545.0187988,0.02447375469,
543.9675903,0.0001231570059,543.9675903,0.0249094218,
543.0663452,-0.0008255467401,543.0663452,0.02523599006,
542.0146484,-0.0001200942861,542.0146484,0.02514392883,
540.9627075,-0.0002246838412,540.9627075,0.02560885064,
540.0608521,5.37425949E-5,540.0608521,0.02567706257,
539.0084229,-0.0008494192734,539.0084229,0.02493839897,
537.9557495,-0.0001107260541,537.9557495,0.02481740154,
537.0532837,-0.0006942758919,537.0532837,0.02467386052,
536.0001221,-0.001405196148,536.0001221,0.02451212518,
534.9467163,-0.0006634163437,534.9467163,0.02525357716,
534.0436401,-4.245091259E-5,534.0436401,0.02568469755,
532.9897461,-0.0001436951279,532.9897461,0.02548975311,
531.9356689,-0.0001637755195,531.9356689,0.02595092356,
531.0319214,0.001705710078,531.0319214,0.02576940134,
529.977356,6.342108463E-6,529.977356,0.02542612702,
529.0732422,-0.0001126411225,529.0732422,0.02474587224,
528.0181885,-0.0001856144954,528.0181885,0.02479706518,
526.9628906,-0.0003720808018,526.9628906,0.02389390208,
526.0581665,-0.0004838497553,526.0581665,0.02327112295,
525.0023804,-0.0005701523041,525.0023804,0.02351865731,
523.9464111,-0.0007290096837,523.9464111,0.02289802581,
523.0410767,0.0001536086056,523.0410767,0.02375968918,
521.9846191,-0.0005713932333,521.9846191,0.02276330255,
520.9279175,-0.0007513370947,520.9279175,0.02222787403,
520.0219727,-0.000141159122,520.0219727,0.02267751843,
518.9647827,0.0001371137332,518.9647827,0.02194981463,
518.0584717,0.0003335134243,518.0584717,0.02317387983,
517.0008545,-0.0002846005955,517.0008545,0.02162031829,
515.9429932,-0.0004430452536,515.9429932,0.02097190917,
515.0360718,-0.0005166353658,515.0360718,0.02014780417,
513.9777222,-3.142442802E-5,513.9777222,0.02091945522,
513.0704346,-0.0003742533445,513.0704346,0.02030897886,
512.0116577,0.0002308088442,512.0116577,0.02056468278,
510.9526672,-0.0002331182186,510.9526672,0.02018733881,
510.0447693,6.477152056E-5,510.0447693,0.02022527903,
508.985321,-0.000508103054,508.985321,0.01939828321,
507.9256287,-0.0001319983712,507.9256287,0.01961244643,
507.0171204,-1.967329126E-6,507.0171204,0.01996180601,
505.9570007,2.1356449E-5,505.9570007,0.02011496946,
505.0481262,0.0001814208663,505.0481262,0.02004667558,
503.9875488,0.000195560744,503.9875488,0.01962915622,
502.9267273,-0.0009882365121,502.9267273,0.01892595179,
502.0172729,-0.0002301170607,502.0172729,0.01928474568,
500.9560242,-0.0006001396105,500.9560242,0.01858496293,
500.0462036,-0.001042625052,500.0462036,0.01813189499,
498.9844971,-0.0009211323923,498.9844971,0.01814023405,
498.0742798,-0.0003589935077,498.0742798,0.01853292994,
497.012146,-9.88832744E-6,497.012146,0.01864143275,
495.9497986,-0.0001368116791,495.9497986,0.01884732954,
495.0390015,-0.0004685937602,495.0390015,0.01860946789,
493.9762268,-0.0003795812372,493.9762268,0.01880948432,
493.0650635,-0.0005342165241,493.0650635,0.01830433868,
492.0018311,2.329743438E-6,492.0018311,0.01875126176,
490.9383545,-4.239914779E-5,490.9383545,0.01894455589,
490.0266418,-1.180384152E-5,490.0266418,0.01936988905,
488.9627686,0.0008095093071,488.9627686,0.01812460832,
488.0506592,0.0004637098464,488.0506592,0.01879972592,
486.9863586,-0.0003836159012,486.9863586,0.01872374862,
486.0738831,-0.0009700021474,486.0738831,0.01858096384,
485.0091553,-0.0001497503981,485.0091553,0.01890778355,
483.9441833,0.0001532460738,483.9441833,0.01933903433,
483.0311584,-0.0006074293051,483.0311584,0.01906138472,
481.9657593,-0.0009312580805,481.9657593,0.01862311363,
481.0523682,-0.0008861040114,481.0523682,0.01909040846,
479.9865417,-0.0001834409923,479.9865417,0.01962783001,
479.0728149,-0.0003081407631,479.0728149,0.01964730211,
478.0065918,0.0003347827878,478.0065918,0.0201774966,
476.9401245,0.0007038399926,476.9401245,0.02072329819,
476.0258179,-0.0007726297481,476.0258179,0.02002881095,
474.9589233,-0.0004290291399,474.9589233,0.02082040161,
474.044281,-0.0005416624481,474.044281,0.02124328166,
472.9769897,-1.118259479E-5,472.9769897,0.02198404074,
472.0619812,-0.0005868006847,472.0619812,0.02139931545,
470.9942627,-0.001447613118,470.9942627,0.02118736878,
469.9263306,-0.001257065334,469.9263306,0.02205359191,
469.0108032,-0.0008563431329,469.0108032,0.02290981449,
467.9424438,-0.0001154878337,467.9424438,0.02470616624,
467.0265503,-0.0008921489352,467.0265503,0.0240014568,
465.9577942,-0.001146218157,465.9577942,0.02401830815,
465.0415344,-0.000882074004,465.0415344,0.02479777858,
463.9723816,-0.0003878574353,463.9723816,0.0265784692,
463.0557861,-0.0001990174933,463.0557861,0.0273049064,
461.9862061,0.0006817499525,461.9862061,0.02811294794,
461.0692749,-0.000205848206,461.0692749,0.02878085524,
459.9992981,-0.0003601832723,459.9992981,0.02961356938,
458.9291077,-7.920384087E-5,458.9291077,0.03111143969,
458.0116272,-0.0007292164373,458.0116272,0.03140956536,
456.94104,0.0001675404201,456.94104,0.03347802907,
456.0232239,-0.0003286791616,456.0232239,0.03427154198,
454.95224,-0.0001183862842,454.95224,0.03595459089,
454.0340576,-3.887898492E-5,454.0340576,0.03743705899,
452.962677,-1.402996804E-5,452.962677,0.03873718157,
452.0441589,0.0002712919959,452.0441589,0.04050645232,
450.9723816,-0.000146696897,450.9723816,0.04173721001,
450.0535583,0.0001626461017,450.0535583,0.04379189014,
448.9813538,-0.001198418438,448.9813538,0.0441798903,
448.0621948,-0.0002930338087,448.0621948,0.04741130769,
446.989624,-8.137786062E-5,446.989624,0.04964863136,
446.0700989,-0.0002277885505,446.0700989,0.05220526457,
444.9971313,-0.0007309220382,444.9971313,0.05434603989,
443.9239502,-0.0001907377009,443.9239502,0.05786262453,
443.0039368,-0.0001045667232,443.0039368,0.0615981631,
441.9303589,0.0001175381985,441.9303589,0.06567106396,
441.0100098,0.0002436553041,441.0100098,0.06968040019,
439.9360657,0.0007301577134,439.9360657,0.07482700795,
439.0153809,-0.001085955417,439.0153809,0.0776406154,
437.94104,0.0007106072735,437.94104,0.08428111672,
437.0200195,-9.861434228E-5,437.0200195,0.09138525277,
435.945282,-0.0002965001913,435.945282,0.09890478849,
435.0239563,-1.713617348E-5,435.0239563,0.1063332334,
433.9488525,0.0003783069551,433.9488525,0.1146248877,
433.0271606,-0.0002774089517,433.0271606,0.1232443079,
431.9516907,0.001070901635,431.9516907,0.1334874183,
431.0296936,-1.061311741E-5,431.0296936,0.1434256285,
429.9538269,0.0008006139542,429.9538269,0.1540771723,
429.0315247,8.206627535E-5,429.0315247,0.1626745462,
427.9552917,0.0001772515097,427.9552917,0.1737618595,
427.0326538,-0.0002258739842,427.0326538,0.1832413822,
425.9560242,0.0003881263838,425.9560242,0.1941257566,
425.0330811,7.502401422E-5,425.0330811,0.2026639134,
423.9560852,-0.000271769386,423.9560852,0.2112735212,
423.0328064,-0.0003132625134,423.0328064,0.2167520821,
421.9554443,-0.0001722110901,421.9554443,0.2225717306,
421.0318604,-6.590067642E-5,421.0318604,0.226807788,
419.9541321,-0.0001947741112,419.9541321,0.229470253,
419.0302124,-0.001213442301,419.0302124,0.2275272012,
417.9521484,9.73680435E-5,417.9521484,0.2264772207,
417.0278931,-0.0005550545175,417.0278931,0.2248207927,
415.9494629,-0.0004039438209,415.9494629,0.2199737281,
415.0249023,0.0008310871199,415.0249023,0.2143254578,
413.946106,0.0003846027539,413.946106,0.2093350291,
413.0212402,-0.0001907377009,413.0212402,0.2033481449,
411.9420776,-0.0002373094758,411.9420776,0.1972337067,
411.0169067,0.0002976612013,411.0169067,0.190752849,
409.9373779,0.0005246888613,409.9373779,0.1851917654,
409.0119019,3.041707714E-5,409.0119019,0.1790786237,
407.9320068,0.0002167196217,407.9320068,0.1723086983,
407.0062256,0.0003114162828,407.0062256,0.1669269502,
405.9259644,4.724446262E-5,405.9259644,0.162005201,
404.9998779,-1.532422357E-5,404.9998779,0.1559851319,
404.0736694,0.0003060540766,404.0736694,0.1528746635,
402.9928894,-0.0003014151298,402.9928894,0.1473238617,
402.0663452,-0.001351627172,402.0663452,0.1445834935,
400.9852295,0.0004358795122,400.9852295,0.140925765,
400.0584106,0.00192486879,400.0584106,0.137307927,
398.9769287,0.0001627755846,398.9769287,0.132944569,
398.0498047,8.002090181E-5,398.0498047,0.1297473013,
396.9679871,5.705642252E-5,396.9679871,0.1271782517,
396.0405579,5.294003131E-5,396.0405579,0.1245045513,
394.958374,0.000125021339,394.958374,0.1210143268,
394.0306702,0.001230548602,394.0306702,0.1182822287,
392.9481506,-2.541927643E-5,392.9481506,0.1147153601,
392.0201111,-0.000154252979,392.0201111,0.1126575619,
390.9372559,0.0003490053932,390.9372559,0.1095853373,
390.0089417,-0.0005716000451,390.0089417,0.1075911149,
388.9257507,-0.0002292373974,388.9257507,0.1037562937,
387.9971619,-9.975306602E-5,387.9971619,0.1019251049,
387.0684204,-0.0001305492042,387.0684204,0.09978549927,
385.9847107,-0.001624357537,385.9847107,0.09605909884,
385.0556946,0.0002887244918,385.0556946,0.09613580257,
383.9716492,0.0001041517389,383.9716492,0.09324812889,
383.0423279,3.650075087E-5,383.0423279,0.09272993356,
381.9579468,0.0002694011491,381.9579468,0.08974345773,
381.0283508,0.0004106419801,381.0283508,0.08960130811,
379.943634,0.0008247070364,379.943634,0.08830337971,
379.0137634,2.573141501E-5,379.0137634,0.08724095672,
377.9287109,0.0004661198182,377.9287109,0.08597724885,
376.9985352,0.0001375280408,376.9985352,0.08549100906,
376.0682373,3.675962944E-5,376.0682373,0.08537932485,
374.9827271,-4.327918214E-5,374.9827271,0.08495207131,
374.052124,0.0001840364566,374.052124,0.08525909483,
372.9662781,0.0003719335073,372.9662781,0.0851450488,
372.0354004,9.004073218E-5,372.0354004,0.08487558365,
370.9492493,-0.0005109988851,370.9492493,0.08401822299,
370.0180969,-0.0008284404757,370.0180969,0.08379874378,
368.9315796,0.0001124114206,368.9315796,0.08483228087,
368.0001831,-8.101552521E-5,368.0001831,0.08503977954,
367.068634,-1.6307853E-5,367.068634,0.0847690627,
365.9816589,0.0004977098433,365.9816589,0.08509054035,
365.0498352,0.0009574894793,365.0498352,0.08514212072,
363.9625244,0.0002714992152,363.9625244,0.08476094157,
363.030426,-0.0004896934261,363.030426,0.08353175223,
361.9428406,5.480405162E-5,361.9428406,0.08407492191,
361.0104675,-0.0002967588662,361.0104675,0.08363091201,
359.9225159,0.0004302307498,359.9225159,0.08361566067,
358.9898987,-0.0003896160924,358.9898987,0.0828678757,
358.0571289,0.0003419588029,358.0571289,0.08165042102,
356.96875,-7.506282418E-5,356.96875,0.08124349266,
356.0357056,-0.0005364399985,356.0357056,0.08123375475,
354.9470215,0.0005166286719,354.9470215,0.07987168431,
354.0137024,-0.0001282201556,354.0137024,0.0783495307,
352.9247131,0.0001007598767,352.9247131,0.07768531889,
351.9911194,-0.0006200955249,351.9911194,0.07583636791,
351.0574341,-0.0002242181363,351.0574341,0.075344868,
349.9679871,-9.297244833E-5,349.9679871,0.07453314215,
349.0340271,-0.0001175063953,349.0340271,0.07278775424,
347.9442749,-0.0003503546468,347.9442749,0.07170715928,
347.0100708,-0.0008384133107,347.0100708,0.06972234696,
346.0757141,0.000319861254,346.0757141,0.06950529665,
344.9855347,9.068801592E-5,344.9855347,0.06903801858,
344.0509338,-1.589369458E-5,344.0509338,0.0666667968,
342.9604187,0.0001433542639,342.9604187,0.0654938668,
342.0255737,-0.001159591484,342.0255737,0.06348498911,
340.9347534,0.0008240067982,340.9347534,0.06343573332,
339.9996643,6.940582534E-5,339.9996643,0.06191376597,
339.0644226,9.78858734E-5,339.0644226,0.06147867814,
337.973175,-0.0004395283468,337.973175,0.05969199911,
337.0377197,-0.0003690288577,337.0377197,0.05863475055,
335.946167,0.0003920386953,335.946167,0.05824605748,
335.010437,0.0002967286564,335.010437,0.05656494573,
334.074585,0.0009396150708,334.074585,0.05588860065,
332.9826355,0.00129376445,332.9826355,0.05442522839,
332.0465393,-9.31893851E-7,332.0465393,0.0538701117,
330.9542847,-0.0001087592173,330.9542847,0.05326635763,
330.0179138,0.000480009825,330.0179138,0.05320414901,
328.9253845,0.0004643058637,328.9253845,0.05183033273,
327.9888,-6.71430098E-5,327.9888,0.0498611182,
327.0520935,-0.0001453512668,327.0520935,0.04962283,
325.9591064,-0.000203157324,325.9591064,0.0483822003,
325.0221558,0.0004549770383,325.0221558,0.0478893742,
323.928894,0.0003615703608,323.928894,0.04690706357,
322.9916992,-0.0002061586856,322.9916992,0.04685709253,
322.0544128,0.0003381764982,322.0544128,0.04616862163,
320.9607544,-0.0001820954931,320.9607544,0.04563047737,
320.0231934,0.0003040076408,320.0231934,0.04646171257,
318.9292603,-0.0006594876759,318.9292603,0.044945959,
317.9914551,-6.678066711E-5,317.9914551,0.04517899081,
317.0535583,-0.0003391290666,317.0535583,0.04549495503,
315.959198,9.943938494E-5,315.959198,0.04556754231,
315.0210876,0.000466223486,315.0210876,0.04588508233,
313.9264526,-7.382050535E-5,313.9264526,0.04583700746,
312.9880676,-0.0005669466336,312.9880676,0.04663209245,
312.0495911,-0.0002827380376,312.0495911,0.04766638204,
310.9545593,0.0001028312399,310.9545593,0.04958487675,
310.0158386,0.001026166254,310.0158386,0.05146510899,
309.0770264,-0.0001148667361,309.0770264,0.05483747274,
307.9815979,-0.0003233506577,307.9815979,0.05881993473,
307.0425415,0.0001492323645,307.0425415,0.06346988678,
305.9468689,-0.0002461575496,305.9468689,0.07025717944,
305.0075684,0.0003828927875,305.0075684,0.07693147659,
304.0681763,0.001184888417,304.0681763,0.08477155119,
302.9721069,0.001068021171,302.9721069,0.09674753994,
302.0325012,9.265576227E-5,302.0325012,0.1076351851,
300.9361267,0.00046137764,300.9361267,0.119434543,
299.9963074,-1.765387242E-5,299.9963074,0.1301050186,
299.056366,0.0002498714603,299.056366,0.1447538286,
297.9596252,1.263253671E-5,297.9596252,0.167253986,
297.0194397,7.693991211E-5,297.0194397,0.1866972297,
295.9224548,-0.0002638014266,295.9224548,0.2154172063,
294.9820557,-0.0001315843256,294.9820557,0.237528041,
294.0415649,-0.0005579499993,294.0415649,0.2637432516,
292.9442139,-0.0009657663177,292.9442139,0.2840449512,
292.003479,1.100167628E-5,292.003479,0.3006517589,
291.0626831,-0.0002832036698,291.0626831,0.3141592145,
289.9649353,-0.0001279613789,289.9649353,0.3348060548,
289.0238953,0.0001216552046,289.0238953,0.360580802,
287.9259033,-4.291681398E-5,287.9259033,0.3923459351,
286.9846497,-9.742385737E-5,286.9846497,0.4138720334,
286.0433044,0.000722690078,286.0433044,0.4248668253,
284.9449463,0.0009005221655,284.9449463,0.4360164106,
284.0033569,0.0002769905259,284.0033569,0.4396426976,
283.0617065,-0.000562706904,283.0617065,0.4428189397,
281.9629822,-8.29307246E-5,281.9629822,0.4477720857,
281.0211182,0.000508905563,281.0211182,0.4508061409,
279.9221191,0.0006767720915,279.9221191,0.4497560859,
278.9800415,0.0001558356016,278.9800415,0.4468635917,
278.0378723,0.000343435473,278.0378723,0.4422742128,
276.9385376,-0.0001289447537,276.9385376,0.4369451404,
275.9961548,-0.0003779259569,275.9961548,0.4302633107,
275.0536804,-0.0001358800801,275.0536804,0.4196036458,
273.9539795,-0.0002341013605,273.9539795,0.4086386561,
273.0112915,-0.001510818023,273.0112915,0.3976959884,
272.068512,0.0002089759219,272.068512,0.391872257,
270.9684753,-5.653127664E-5,270.9684753,0.3832601011,
270.0254822,0.0006681386731,270.0254822,0.3740390539,
268.9252014,0.0002093903022,268.9252014,0.3573426306,
267.9820251,0.000987532665,267.9820251,0.3461494148,
267.0387573,-0.001066020806,267.0387573,0.3365185559,
265.9381409,0.001105494099,265.9381409,0.3222706914,
264.9946594,-0.0005782180815,264.9946594,0.3091206551,
264.0510864,-0.0003353008942,264.0510864,0.2979692817,
262.9501343,-0.001123394701,262.9501343,0.2873907089,
262.0063477,-0.001298825839,262.0063477,0.2812017798,
261.0625,-0.002075333381,261.0625,0.2762760818,
259.9612122,0.002061967505,259.9612122,0.2663019001,
259.0171509,0.000119117678,259.0171509,0.2513824701,
258.072998,0.000304085348,258.072998,0.2417105883,
256.9713745,0.0005511512281,256.9713745,0.2337682247,
256.0270386,0.0003577619791,256.0270386,0.2287442833,
254.9252014,-0.000332869502,254.9252014,0.2293132693,
253.9806671,0.001088495948,253.9806671,0.2266238481,
253.0360413,-0.000889720628,253.0360413,0.2231202573,
251.9338837,-0.0008606316987,251.9338837,0.2267700434,
250.9890747,-0.0005762533401,250.9890747,0.2310881168,
250.0441742,0.0005356520414,250.0441742,0.2416492999,
248.947998,0.000125772247,248.947998,0.2539671361,
248.0085449,0.0001714507234,248.0085449,0.2686071098,
247.0690155,-0.0006505446509,247.0690155,0.2954189479,
245.9727936,-0.0001223198633,245.9727936,0.336099267,
245.0330658,-0.0005253743147,245.0330658,0.3706094623,
243.9366302,-8.080847329E-5,243.9366302,0.4354950786,
242.9967346,-0.0003524755884,242.9967346,0.4906060696,
242.0567474,0.0006942986511,242.0567474,0.5857648253,
240.9600067,0.0004597709922,240.9600067,0.7035426497,
240.0198364,-0.0001836997399,240.0198364,0.8477947712,
238.9228821,-7.620160613E-5,238.9228821,1.048912168,
237.9825439,-1.211446397E-5,237.9825439,1.204898357,
237.0421143,-9.090200911E-5,237.0421143,1.390190005,
235.9448547,0.0004356204008,235.9448547,1.642793775,
235.0042572,0.0007729953504,235.0042572,1.888242722,
234.0635834,-0.001079913112,234.0635834,2.112172127,
232.9660187,0.0001716319966,232.9660187,2.245800495,
232.025177,-0.0006159079494,232.025177,2.395120382,
230.9274139,-0.0008477141382,230.9274139,2.384367943,
229.9863892,-0.004408758134,229.9863892,2.342884779,
229.0452728,0.00367038371,229.0452728,2.943140507,
227.9472198,0.0002768610138,227.9472198,2.625780344,
227.0059509,-0.001353330328,227.0059509,2.678921223,
226.0646057,-0.003571310779,226.0646057,2.636595726,
224.9662628,-0.01093417499,224.9662628,2.657683849,
224.0247345,0.01128457021,224.0247345,2.482871294,
222.9261932,-0.0184832029,222.9261932,2.141329288,
221.9845123,-0.02475407161,221.9845123,2.098786592,
221.0427551,0.02383633517,221.0427551,1.980278611,
219.943924,-0.01178587601,219.943924,1.814305186,
219.0019989,-0.0152968904,219.0019989,1.710323572,
218.0599976,-0.001528101042,218.0599976,1.517151594,
216.960907,0.01419345662,216.960907,1.212062359,
216.0187378,0.02980091982,216.0187378,1.292250037,
215.0765076,0.004332693294,215.0765076,0.9333265424,
213.9771271,0.03771781921,213.9771271,0.7996603847,
213.034729,-0.02682863362,213.034729,0.8160905242,
211.9351807,0.07426717132,211.9351807,0.5155748725,
210.9926147,-0.02732892148,210.9926147,0.3700754941,
210.0499878,-0.1877061129,210.0499878,0.161576435,
208.9501648,0.0213473253,208.9501648,0.4847901762,
208.0073853,-0.01516612247,208.0073853,0.1726064682,
207.0645294,0.1891933084,207.0645294,0.295201391,
205.9644318,0.1439710408,205.9644318,0.1562250555,
205.0214233,-0.1974668503,205.0214233,-0.06448367983,
204.0783539,0.1085037589,204.0783539,0.275967598,
202.9779968,0.201862514,202.9779968,0.4128461778,
202.0347748,0.1033005416,202.0347748,0.2450523078,
200.9342499,0.1106499508,200.9342499,0.1569321305,
199.9907532,0.1522977054,199.9907532,0.3382642567,

baseline,
baseline
Collection Time: 10/10/2019 13:53:03
Operator Name  :
Scan Software Version: 3.00(339)
Parameter List :
Instrument                        Cary 50
Instrument Version                3.00
Start (nm)                        800.0
Stop (nm)                         200.0
X Mode                            Nanometers
Y Mode                            Abs
UV-Vis Scan Rate (nm/min)         4800.00
UV-Vis Data Interval (nm)         1.00
UV-Vis Ave. Time (sec)            0.0125
Beam Mode                         Dual Beam
Baseline Correction               On
Baseline Type                     Baseline correction
Baseline File Name
Baseline Std Ref File Name
Cycle Mode                        Off
Comments
Method Log     :
Method Name    :
Date/Time stamp: 09/10/2019 11:37:48
Method Modifications:
Common Interval nm Changed: 10/10/2019 13:52:43, Old:     5.00, New:     1.00
Baseline Correction Changed: 10/10/2019 13:52:43, Old:0, New:1
Storage Changed: 10/10/2019 13:52:43, Old:1, New:0
End Method Modifications
<Current Wavelength> , 203.0

bm3workinngstock,
bm3workinngstock
Collection Time: 10/10/2019 13:53:33
Operator Name  :
Scan Software Version: 3.00(339)
Parameter List :
Instrument                        Cary 50
Instrument Version                3.00
Start (nm)                        800.0
Stop (nm)                         200.0
X Mode                            Nanometers
Y Mode                            Abs
UV-Vis Scan Rate (nm/min)         4800.00
UV-Vis Data Interval (nm)         1.00
UV-Vis Ave. Time (sec)            0.0125
Beam Mode                         Dual Beam
Baseline Correction               On
Baseline Type                     Baseline correction
Baseline File Name
Baseline Std Ref File Name
Cycle Mode                        Off
Comments
Method Log     :
Method Name    :
Date/Time stamp: 09/10/2019 11:37:48
Method Modifications:
Common Interval nm Changed: 10/10/2019 13:52:43, Old:     5.00, New:     1.00
Baseline Correction Changed: 10/10/2019 13:52:43, Old:0, New:1
Storage Changed: 10/10/2019 13:52:43, Old:1, New:0
End Method Modifications
<Current Wavelength> , 203.0

