baseline,,bm3WT_5in1000,,
Wavelength (nm),Abs,Wavelength (nm),Abs,
799.9963989,0.001397603657,799.9963989,0.005523002706,
799.0256958,-5.17716262E-6,799.0256958,0.0003533059498,
798.0545654,-0.0007506652037,798.0545654,0.006140543148,
796.9442139,0.0006466467166,796.9442139,0.005876266398,
795.97229,-0.001356943045,795.97229,0.004984492902,
795,-0.00205224962,795,0.005040112883,
794.0272827,0.004517084453,794.0272827,0.005649702623,
793.0542603,-0.002734354697,793.0542603,0.002212144434,
791.9417114,-0.00283224741,791.9417114,-0.001013753004,
790.9678955,-0.0001891852153,790.9678955,0.006546418648,
789.9936523,-0.004534556065,789.9936523,0.0008360408247,
789.019043,0.002674733289,789.019043,0.007169601973,
788.0440674,0.002926826477,788.0440674,0.001752386685,
787.0687256,0.002078587655,787.0687256,0.003294963855,
785.9535522,0.003487786977,785.9535522,0.005423414521,
784.977417,0.003348515835,784.977417,0.008504547179,
784.0009155,0.002687391825,784.0009155,0.003694453975,
783.0240479,-0.004079717211,783.0240479,-0.006030014716,
782.0467529,0.0006115463329,782.0467529,0.006792828906,
781.0691528,0.0009862094885,781.0691528,0.006516067311,
779.951416,-0.00250303885,779.951416,0.002713022521,
778.9730225,-0.002491714433,778.9730225,0.001558669843,
777.9942627,-0.001970621757,777.9942627,0.006683775224,
777.0150757,0.004590486176,777.0150757,0.006613540463,
776.0355835,-0.0006123924395,776.0355835,0.00352145033,
775.0557251,0.001361273928,775.0557251,0.003266116837,
773.9353638,0.001589897671,773.9353638,0.005287006497,
772.9547119,-0.000496209308,772.9547119,0.003485568799,
771.9736938,0.0001376057189,771.9736938,0.009748108685,
770.9923096,-0.0003637008485,770.9923096,0.006863065995,
770.0105591,0.006225144025,770.0105591,0.009271766059,
769.0284424,-0.001554256538,769.0284424,0.004505078774,
768.0459595,0.0001209301918,768.0459595,0.004506883677,
767.0631104,-0.001122310292,767.0631104,0.008367854171,
765.9394531,-0.0006429971545,765.9394531,0.002777835121,
764.9558105,-0.002228181576,764.9558105,0.00286186114,
763.9718628,0.00353661296,763.9718628,0.004346655216,
762.9874878,0.003308344632,762.9874878,0.006082025822,
762.0028076,-2.293436228E-5,762.0028076,0.001989095937,
761.0177612,0.001905550482,761.0177612,0.005853780545,
760.0323486,-0.003718705615,760.0323486,0.005349269137,
759.0465698,0.001004916034,759.0465698,0.006766561884,
758.0604248,-0.004006215371,758.0604248,0.004914375953,
756.9329834,0.002524943091,756.9329834,0.005908016581,
755.946106,-0.0005760982167,755.946106,0.003930970561,
754.9588013,0.001457181526,754.9588013,0.002698852448,
753.9711914,0.004225039389,753.9711914,0.006381338462,
752.9832153,0.0009070849628,752.9832153,0.008298798464,
751.9949341,0.004129746929,751.9949341,0.007378265727,
751.0062256,0.0003186177928,751.0062256,0.004208467435,
750.0172119,-0.0004070472496,750.0172119,0.00414317986,
749.027832,-0.0001543564867,749.027832,0.005612097681,
748.0380859,0.002168592066,748.0380859,0.01016166434,
747.0479736,0.003648272948,747.0479736,0.009120873176,
746.0575562,-0.0009226305992,746.0575562,0.005104723852,
745.0667725,-0.001851398963,745.0667725,0.003262595972,
743.934021,-0.002607982606,743.934021,0.003633341519,
742.9424438,0.003062755801,742.9424438,0.005212884396,
741.9505615,0.002811652143,741.9505615,0.005931816995,
740.958313,0.0004919825587,740.958313,0.002454414964,
739.9656982,0.001278342563,739.9656982,0.005685579963,
738.9727783,-0.002185274148,738.9727783,0.005121356342,
737.9794312,0.003151061013,737.9794312,0.00728370063,
736.9858398,-0.001834335038,736.9858398,0.003809732152,
735.9918213,-0.003278117627,735.9918213,0.005907412618,
734.9974976,-0.002036842518,734.9974976,0.002866030438,
734.0028076,-0.002964159241,734.0028076,0.005558397155,
733.0077515,0.001404875191,733.0077515,0.006995392963,
732.0123901,-0.002610864351,732.0123901,0.004354787059,
731.0166626,-0.001318336697,731.0166626,0.00428440515,
730.0205688,0.003286591265,730.0205688,0.007783376146,
729.0241699,0.002503307071,729.0241699,0.004102464765,
728.0274048,0.001751684933,728.0274048,0.006883605383,
727.0303345,0.0002705408551,727.0303345,0.005654187407,
726.0328979,0.0009186543757,726.0328979,0.003840835067,
725.0350952,0.00287960656,725.0350952,0.008060814813,
724.0369873,0.002291142708,724.0369873,0.007631919347,
723.0385132,-0.0007478226908,723.0385132,0.007998557761,
722.0396729,0.00075295032,722.0396729,0.007463897578,
721.0405273,0.001253393479,721.0405273,0.0055498234,
720.0410767,-0.001216385048,720.0410767,0.003984914161,
719.0411987,0.001299684052,719.0411987,0.006144271698,
718.0410767,0.001685206196,718.0410767,0.005717604421,
717.0405273,-0.002187952865,717.0405273,0.004099695012,
716.0396729,-0.001833252492,716.0396729,0.004343910143,
715.0385132,0.002195102861,715.0385132,0.005916544702,
714.0369873,9.304413834E-5,714.0369873,0.006457157433,
713.0351563,0.002201997442,713.0351563,0.007730776444,
712.032959,0.0005824104301,712.032959,0.006255054846,
711.0303955,0.001830625581,711.0303955,0.008024081588,
710.0275269,-0.0005257363082,710.0275269,0.006275827996,
709.024353,0.001416405896,709.024353,0.009778369218,
708.020813,0.001134924591,708.020813,0.005554385483,
707.0169678,-0.0002209064405,707.0169678,0.005889648572,
706.0127563,-0.001768753747,706.0127563,0.005722824018,
705.0081787,0.0005389436265,705.0081787,0.006786755286,
704.0033569,-0.001542649232,704.0033569,0.004819612484,
702.9981689,0.0003114680876,702.9981689,0.006698023062,
701.9926147,0.0006465170882,701.9926147,0.005578586832,
700.9867554,0.0003533318522,700.9867554,0.006657961756,
699.9805298,0.0007009101682,699.9805298,0.006469348911,
698.973999,-0.0001937908819,698.973999,0.006156821735,
697.9671631,5.842855899E-5,697.9671631,0.006892442238,
696.960022,0.0003608449479,696.960022,0.006920557935,
695.9524536,-0.0003703220573,695.9524536,0.004700088408,
694.9446411,0.001829767716,694.9446411,0.006259387825,
693.9364624,-0.0003102619085,693.9364624,0.004103013314,
692.9279785,-0.0001870117412,692.9279785,0.006261672825,
692.0632935,0.001601407421,692.0632935,0.006898728199,
691.0541992,0.001831509406,691.0541992,0.007695678622,
690.0447388,-0.002356003039,690.0447388,0.004410823341,
689.0350342,0.0008147220942,689.0350342,0.006751680747,
688.0249634,-0.000284911046,688.0249634,0.006775869522,
687.0145264,-3.71706592E-5,687.0145264,0.007243584841,
686.0037842,0.001787345507,686.0037842,0.007190655917,
684.9927368,-0.0006951546529,684.9927368,0.006993603893,
683.9813843,0.0009840300772,683.9813843,0.006619980093,
682.9696655,-2.324497837E-5,682.9696655,0.00694275694,
681.9577026,-0.0001177134327,681.9577026,0.006967745721,
680.9453125,0.0003313114285,680.9453125,0.009352244437,
679.9326782,0.0001429917465,679.9326782,0.005323246587,
679.0643921,-0.0001841137419,679.0643921,0.005892718211,
678.0511475,0.002252890728,678.0511475,0.008781602606,
677.0375977,-0.0003172460711,677.0375977,0.008809681982,
676.0236816,0.002170361113,676.0236816,0.008637349121,
675.0094604,-0.000280461536,675.0094604,0.007314816117,
673.9949341,-3.173503865E-5,673.9949341,0.006323917769,
672.9801025,0.0006562389317,672.9801025,0.00636620773,
671.9649048,-0.0008775272872,671.9649048,0.005825445522,
670.9494629,0.0006817240501,670.9494629,0.00835898798,
669.9336548,0.001977862092,669.9336548,0.008068225347,
669.0626831,0.0004915937898,669.0626831,0.008930343203,
668.0463257,0.002063527936,668.0463257,0.008870100603,
667.0296021,-0.001690631034,667.0296021,0.006188066676,
666.0125732,-0.0009305864805,666.0125732,0.007561768405,
664.9953003,0.002407819033,664.9953003,0.0119828973,
663.9776001,0.0008740125922,663.9776001,0.00955852028,
662.9596558,0.002582280198,662.9596558,0.01051251683,
661.9414063,-0.0001968440629,661.9414063,0.007438274566,
661.0683594,0.001911920495,661.0683594,0.01003557444,
660.0494995,0.0009646757971,660.0494995,0.008941837586,
659.0303345,0.001217179699,659.0303345,0.008707488887,
658.0108643,-0.001310233027,658.0108643,0.009474987164,
656.9910889,-0.0004409764952,656.9910889,0.007962225005,
655.9710083,0.0008777736221,655.9710083,0.00880450476,
654.9505615,0.001088340301,654.9505615,0.01266323868,
653.9298706,0.001909476472,653.9298706,0.01175621152,
653.0547485,0.0007988763973,653.0547485,0.007565983105,
652.0334473,-0.0002755981113,652.0334473,0.007690145168,
651.0118408,0.0005366628175,651.0118408,0.008962501772,
649.9899292,0.002229056554,649.9899292,0.01187947579,
648.9677734,0.002331505995,648.9677734,0.01170381997,
647.9452515,0.0004517897323,647.9452515,0.01076108217,
647.0685425,-0.0007126252167,647.0685425,0.01074823923,
646.0454712,-0.001863101148,646.0454712,0.009967656806,
645.0220947,0.001513260766,645.0220947,0.01067965291,
643.9984131,3.199623461E-5,643.9984131,0.009305828251,
642.9744263,0.001049986458,642.9744263,0.009138770401,
641.9501343,-0.0004157884105,641.9501343,0.01199165173,
641.0718994,0.0004472809087,641.0718994,0.01090686582,
640.0470581,0.002826946089,640.0470581,0.01107906643,
639.0219116,0.0003808719048,639.0219116,0.008231547661,
637.99646,0.0003104837087,637.99646,0.009143423289,
636.9707031,0.0005315570161,636.9707031,0.009137977846,
635.9446411,0.0006126091466,635.9446411,0.009022914805,
635.0649414,0.000311675336,635.0649414,0.01037195604,
634.038269,-0.001582164201,634.038269,0.01030422468,
633.0113525,-0.001105682459,633.0113525,0.009780936874,
631.9841919,-0.0005294593866,631.9841919,0.01193864644,
630.956665,-7.801329775E-5,630.956665,0.008736065589,
629.928833,-0.0001578757074,629.928833,0.009805401787,
629.0476074,-0.0006181827048,629.0476074,0.009380890056,
628.0192871,0.0003124783689,628.0192871,0.01096314378,
626.9906006,0.00113803905,626.9906006,0.01018495671,
625.9616699,0.002174471738,625.9616699,0.01031180564,
624.9324341,0.0002690903202,624.9324341,0.008978595026,
624.0499878,0.001166848931,624.0499878,0.01235365495,
623.0201416,0.0001827675005,623.0201416,0.011410092,
621.9900513,-0.0006147188833,621.9900513,0.00980436895,
620.9597168,0.002628452145,620.9597168,0.01064532436,
619.9290161,0.001167290146,619.9290161,0.01106196549,
619.0453491,0.0006651053554,619.0453491,0.008384347893,
618.0141602,-0.0006159079494,618.0141602,0.007771174423,
616.982605,0.001108011464,616.982605,0.0105603626,
615.9508057,-8.940093539E-5,615.9508057,0.009273987263,
615.0661621,0.000541094807,615.0661621,0.01011661813,
614.0338745,0.0006758387317,614.0338745,0.009280282073,
613.0012207,0.0005518769613,613.0012207,0.01047650445,
611.9683228,0.0001476009784,611.9683228,0.01041832753,
610.9351196,0.000832565478,610.9351196,0.01048178133,
610.0492554,-0.00021469692,610.0492554,0.01185571868,
609.0155029,-0.001664535492,609.0155029,0.009305749089,
607.9815063,-0.0008101477288,607.9815063,0.01092210226,
606.9471436,-0.0009028952336,606.9471436,0.01087538525,
606.0603638,0.0007476345636,606.0603638,0.01071472745,
605.0255127,0.0005282654893,605.0255127,0.01126055326,
603.9904175,0.0005436348147,603.9904175,0.01276793983,
602.9550171,0.002774448367,602.9550171,0.01417644694,
602.0672607,-0.0009105931967,602.0672607,0.01126166899,
601.031311,0.001369297854,601.031311,0.01389691886,
599.9951172,-0.001621727017,599.9951172,0.01305106375,
598.9585571,0.001301241922,598.9585571,0.01328419149,
598.0699463,0.0007955828332,598.0699463,0.01392180286,
597.0328979,0.0007164930576,597.0328979,0.01402624696,
595.9955444,-0.001509889378,595.9955444,0.01480998751,
594.9579468,-0.001274874667,594.9579468,0.014891739,
594.0683594,0.001016747556,594.0683594,0.01600299962,
593.0302734,0.000384369574,593.0302734,0.01428341307,
591.9918823,-0.0009787837043,591.9918823,0.01702565141,
590.953186,0.0008527698228,590.953186,0.01817807741,
590.0626831,0.0003149133991,590.0626831,0.01652429625,
589.0234985,0.0007130185841,589.0234985,0.01879123785,
587.9840088,0.000839386601,587.9840088,0.01983126812,
586.9442749,0.001251031063,586.9442749,0.02006275207,
586.0527954,-0.0007244097069,586.0527954,0.01983885467,
585.0125732,-0.002135098446,585.0125732,0.02076090313,
583.9719849,0.0001387450611,583.9719849,0.0245892331,
582.9312134,-0.0008811956504,582.9312134,0.02583192475,
582.0388794,-0.001469903626,582.0388794,0.02672817372,
580.9974976,9.182723443E-5,580.9974976,0.03005936183,
579.9559326,-0.0008140233695,579.9559326,0.029452255,
579.0629272,0.0001383825438,579.0629272,0.03121211752,
578.020813,-0.0006924151094,578.020813,0.03120307811,
576.9784546,0.001253081951,576.9784546,0.03431414813,
575.935791,-0.0003381978895,575.935791,0.0333504118,
575.0418701,-0.00061290944,575.0418701,0.03612697497,
573.9987183,-0.001672065235,573.9987183,0.0364199765,
572.9552612,-0.0006433590315,572.9552612,0.03601446375,
572.0606689,0.001316404901,572.0606689,0.03860713169,
571.0167847,-0.001362620154,571.0167847,0.03839807212,
569.9725952,0.001772945747,569.9725952,0.03885184601,
568.9281006,-0.0005214961129,568.9281006,0.03925134614,
568.0326538,0.0001525210246,568.0326538,0.03957893327,
566.9876709,0.0002555696992,566.9876709,0.03823815659,
565.9424438,0.0003645497491,565.9424438,0.03860860318,
565.0463257,-0.0003053988039,565.0463257,0.03702340648,
564.0006104,-0.0005544340238,564.0006104,0.03760847822,
562.9545898,-0.0005374224274,562.9545898,0.03673453256,
562.0578003,-0.0004973469768,562.0578003,0.03646544367,
561.0113525,0.0009394593653,561.0113525,0.03668731824,
559.9645996,-0.0001383643394,559.9645996,0.03589270264,
559.0671997,0.0005887092557,559.0671997,0.03552529588,
558.0199585,0.001369817299,558.0199585,0.0379893519,
556.9724121,-0.0001886677201,556.9724121,0.0354202427,
556.0743408,0.001564125414,556.0743408,0.03558398411,
555.0263672,-0.001205440029,555.0263672,0.03584139422,
553.9781494,0.000909575203,553.9781494,0.03574815392,
552.9296265,9.666896221E-5,552.9296265,0.03601882234,
552.0307007,3.054651825E-5,552.0307007,0.03611023724,
550.9816895,-0.0002982592268,550.9816895,0.03695975989,
549.9324341,-0.000603448425,549.9324341,0.03594714031,
549.0328369,0.0005639293813,549.0328369,0.03668644652,
547.9831543,9.293162293E-6,547.9831543,0.03756009787,
546.9331055,0.0003963655618,546.9331055,0.03781295195,
546.0328979,0.0003463111061,546.0328979,0.038162034,
544.9824829,8.01762435E-5,544.9824829,0.03812122345,
543.9317017,0.0007729434874,543.9317017,0.03988230601,
543.0308838,-0.0002689237008,543.0308838,0.04007714987,
541.9796753,0.0004231828207,541.9796753,0.03954011574,
540.9282227,0.0001080096918,540.9282227,0.04008083791,
540.0267944,0.0005709795514,540.0267944,0.04027477652,
538.9748535,-0.0002725454688,538.9748535,0.04054057971,
538.072998,0.0004703956074,538.072998,0.04032289237,
537.0205688,0.001165888505,537.0205688,0.04036944732,
535.9678955,0.0005740122288,535.9678955,0.04118352011,
535.0654297,0.00154087448,535.0654297,0.04044939578,
534.0122681,0.0001291642984,534.0122681,0.04129675031,
532.9589233,-0.000113728056,532.9589233,0.04038737342,
532.0557861,5.092068386E-5,532.0557861,0.04057960212,
531.0019531,0.001289558364,531.0019531,0.04068727419,
529.947876,-0.0004707141197,529.947876,0.0398754403,
529.0441284,-7.894502778E-5,529.0441284,0.03852212057,
527.989624,0.0002514514199,527.989624,0.03870163858,
526.9348145,-0.0002058999526,526.9348145,0.03743324801,
526.0304565,0.0001755423436,526.0304565,0.0378151238,
524.9752197,5.902401972E-5,524.9752197,0.0371851027,
524.0704956,0.0004527225974,524.0704956,0.0364834331,
523.0147705,-0.0006860055728,523.0147705,0.03506614268,
521.9587402,-0.001380063943,521.9587402,0.03471659124,
521.0534668,0.0004932783195,521.0534668,0.03570399806,
519.9970093,0.0003752756456,519.9970093,0.03534705564,
518.9403076,0.0003429950448,518.9403076,0.03484946862,
518.0344238,0.001025154372,518.0344238,0.03446113691,
516.9772949,0.0009289270383,516.9772949,0.03330138326,
516.0709839,-0.0004676628741,516.0709839,0.03300254419,
515.0133667,-0.0005285803345,515.0133667,0.03182659298,
513.9555664,0.0002323369263,513.9555664,0.03327287734,
513.048645,0.0003844214079,513.048645,0.03259211779,
511.990387,0.0003191099968,511.990387,0.03089353256,
510.9318542,-0.0005730477278,510.9318542,0.03109472804,
510.024353,0.0001862635982,510.024353,0.03081802092,
508.9653931,0.0002631070092,508.9653931,0.03049528226,
508.0575256,-0.0003270754532,508.0575256,0.03103678115,
506.9981079,0.0002798656933,506.9981079,0.03048128635,
505.9384766,-0.000363752566,505.9384766,0.02975495346,
505.0299988,-0.0002440878452,505.0299988,0.02859762125,
503.9699097,0.0008844657568,503.9699097,0.02966242842,
503.0610657,0.0010612224,503.0610657,0.02920729853,
502.0005188,-9.980482719E-5,502.0005188,0.02928003669,
500.9397583,0.0009226233233,500.9397583,0.0288827084,
500.0303345,0.0005340451025,500.0303345,0.0287824031,
498.9691467,-0.0009115231223,498.9691467,0.02854542434,
498.0593262,0.0002374651231,498.0593262,0.02846512571,
496.9976807,0.0007105295081,496.9976807,0.02863660641,
495.9358215,-0.0003539240279,495.9358215,0.02877958305,
495.0254517,0.0006550204125,495.0254517,0.02861622907,
493.9631348,-0.0007757822168,493.9631348,0.02804493159,
493.0523987,0.001604914898,493.0523987,0.0292654708,
491.9896545,0.0003953551059,491.9896545,0.02883031219,
490.9266663,0.0002174706897,490.9266663,0.02833824977,
490.0153503,0.0003410779755,490.0153503,0.0288990885,
488.9519653,8.530264313E-5,488.9519653,0.02902767621,
488.0402832,0.0004197625676,488.0402832,0.02866199054,
486.9764404,0.0007705577882,486.9764404,0.02930244058,
486.0643921,0.0006058174768,486.0643921,0.02929330058,
485.0001526,0.0006176122115,485.0001526,0.02939087152,
483.9356384,0.0005048367311,483.9356384,0.02969189174,
483.0230408,0.000311675336,483.0230408,0.02992150933,
481.9581299,0.0004345061898,481.9581299,0.0301214233,
481.045166,0.0002899937681,481.045166,0.02998904325,
479.9798279,7.341881428E-5,479.9798279,0.0310155116,
479.0665283,0.0006252854364,479.0665283,0.0310058929,
478.0007629,-0.0008167104679,478.0007629,0.03062312119,
476.9347839,0.00116843218,476.9347839,0.03196666762,
476.0209045,0.0003565702355,476.0209045,0.03222623467,
474.9544983,-4.44698162E-5,474.9544983,0.03224870563,
474.0402832,0.00042548895,474.0402832,0.03245992959,
472.9734802,0.0003994488216,472.9734802,0.03373853117,
472.0588684,0.0006787165767,472.0588684,0.03379656002,
470.9916687,0.0006115981378,470.9916687,0.03483701497,
469.9241943,4.113475006E-5,469.9241943,0.03489692882,
469.0090637,0.000717504241,469.0090637,0.03659412265,
467.9412231,0.0004359313461,467.9412231,0.03726136312,
467.0257263,0.0001718391577,467.0257263,0.03793304786,
465.9574585,-2.469451101E-5,465.9574585,0.03861830756,
465.041626,0.0004937447957,465.041626,0.04087710381,
463.9729614,0.000832124555,463.9729614,0.04236730933,
463.0567627,0.000674801704,463.0567627,0.04251633584,
461.9877014,-0.0003489579249,461.9877014,0.04401931912,
461.071167,0.0005761895445,461.071167,0.04575873911,
460.0016785,0.000322840322,460.0016785,0.04767940938,
458.9319763,0.0004187002196,458.9319763,0.04981875792,
458.0149231,0.0003964173957,458.0149231,0.05035740882,
456.9448242,0.0001241150603,456.9448242,0.05260210857,
456.0274048,8.618293941E-5,456.0274048,0.05379694328,
454.9569092,-0.0001904272067,454.9569092,0.05593714863,
454.0391541,0.0004879397748,454.0391541,0.05938215926,
452.9682617,0.00149699999,452.9682617,0.06172096357,
452.0501709,0.0004704992753,452.0501709,0.06313845515,
450.9788818,0.0004107197165,450.9788818,0.0665737018,
450.0604553,0.0004242970026,450.0604553,0.0703182593,
448.9887695,0.0001997302752,448.9887695,0.07348357141,
448.0700073,0.0003701199312,448.0700073,0.07726111263,
446.9979248,0.001299086842,446.9979248,0.08131337911,
445.9256287,0.0004874732986,445.9256287,0.08570418507,
445.0063477,0.0002757472103,445.0063477,0.08986693621,
443.9336548,0.000275669503,443.9336548,0.09640080482,
443.0140381,0.00037312528,443.0140381,0.1014617532,
441.940979,0.001078037894,441.940979,0.1089329049,
441.0210266,0.0002050393814,441.0210266,0.113284573,
439.9475708,0.0006963469204,439.9475708,0.1211503446,
439.0273132,5.959358896E-5,439.0273132,0.1299823672,
437.9534607,0.0007042289362,437.9534607,0.1406952143,
437.0328674,0.0007005212246,437.0328674,0.1484004706,
435.9586182,-0.0008027064032,435.9586182,0.1582194269,
435.0376892,0.0006848092889,435.0376892,0.1693376303,
433.9631042,-5.0319406E-5,433.9631042,0.1849339157,
433.0418396,0.0006482799654,433.0418396,0.2005949914,
431.9668579,0.0009258919163,431.9668579,0.2146227509,
431.0452576,0.0003179960768,431.0452576,0.2266173363,
429.9699097,0.0007600554381,429.9699097,0.2448242754,
429.0480042,0.0005677395966,429.0480042,0.2596197426,
427.9722595,0.0004430571862,427.9722595,0.2769517004,
427.0500183,0.0009450629004,427.0500183,0.2925233841,
425.9739075,0.0008845695411,425.9739075,0.3057100177,
425.0513611,0.0007204601425,425.0513611,0.3177094758,
423.974884,0.0006652609445,423.974884,0.3309379816,
423.0520325,0.0007502016961,423.0520325,0.3449750543,
421.9751587,0.0005923382123,421.9751587,0.3539747298,
421.0519714,-9.990834224E-5,421.0519714,0.3581590056,
419.974762,0.0008583981544,419.974762,0.3621887267,
419.0512695,0.0003794728254,419.0512695,0.3627643585,
417.9736633,-0.0002902400156,417.9736633,0.3607737422,
417.0498657,0.00164643582,417.0498657,0.3563497663,
415.9718933,0.0007470640703,415.9718933,0.3528578877,
415.04776,0.0001743769972,415.04776,0.3452619612,
413.9694519,0.0005069100298,413.9694519,0.3355827928,
413.0450134,0.0006189601845,413.0450134,0.3264853358,
411.9663391,0.0001410755503,411.9663391,0.3141675889,
411.0415955,-8.262015035E-5,411.0415955,0.3066298068,
409.9625244,-0.0007803816698,409.9625244,0.2923997343,
409.0374756,0.001015087008,409.0374756,0.2851868272,
407.9580688,8.464794519E-6,407.9580688,0.2718954086,
407.0327148,0.0002408580476,407.0327148,0.2620024681,
405.9529724,0.0006781980046,405.9529724,0.2528481781,
405.0273132,0.0001421113266,405.0273132,0.2452473193,
403.9471741,0.001244696672,403.9471741,0.2372102588,
403.0212097,0.0003050956293,403.0212097,0.2299827337,
401.9407349,0.0001603413984,401.9407349,0.2225239277,
401.0144958,0.0005488444585,401.0144958,0.2170339823,
399.9336548,0.001129188924,399.9336548,0.2100530118,
399.0070801,0.00123927102,399.0070801,0.2069088221,
397.9259338,0.001653581625,397.9259338,0.2002297491,
396.999054,0.0005281099584,396.999054,0.1953055561,
396.072052,0.0006099650636,396.072052,0.1890763491,
394.990387,0.0004738162679,394.990387,0.1839820296,
394.0630798,0.0005683875643,394.0630798,0.1800963432,
392.9810486,0.0004973729374,392.9810486,0.1738446802,
392.0534668,0.000122198966,392.0534668,0.1700863093,
390.9710999,0.0003523991909,390.9710999,0.1652713716,
390.0431824,-1.635962326E-5,390.0431824,0.1600063145,
388.9604797,0.0001146381983,388.9604797,0.155169934,
388.0323181,0.0007973203319,388.0323181,0.1534828544,
386.9492493,0.0004683743173,386.9492493,0.1515272707,
386.0207825,0.001569425222,386.0207825,0.1454097927,
384.9374084,0.0004730388464,384.9374084,0.1436538845,
384.0086365,0.0006461023004,384.0086365,0.1404260546,
382.9249268,0.0004357240396,382.9249268,0.1379269809,
381.9958496,0.0009870136855,381.9958496,0.1371382475,
381.0666809,-0.0005779078347,381.0666809,0.133014828,
379.9824829,-0.0002433117043,379.9824829,0.1307944059,
379.053009,0.001310121501,379.053009,0.1304798126,
377.9684448,0.0009862094885,377.9684448,0.1289234161,
377.0386963,0.0006347215967,377.0386963,0.1284154356,
375.9538269,0.000941041857,375.9538269,0.1297322959,
375.0238037,-0.0002286164672,375.0238037,0.1274854243,
373.9385986,0.0009527159855,373.9385986,0.1274204105,
373.0082703,0.001407601987,373.0082703,0.1265201718,
371.92276,-0.0004969849833,371.92276,0.1280745417,
370.992157,-0.0001626369631,370.992157,0.126377821,
370.0614319,0.00057056488,370.0614319,0.1264361739,
368.9754333,-0.0003663389944,368.9754333,0.1264239848,
368.0444336,-0.0001027551407,368.0444336,0.1273930222,
366.9580994,-0.001278746175,366.9580994,0.1298982203,
366.026825,0.000200869792,366.026825,0.1280976236,
364.9401855,0.0005955265369,364.9401855,0.1282151192,
364.0086365,0.0003063390322,364.0086365,0.1288649738,
363.0769653,-0.0001788352092,363.0769653,0.1279317737,
361.9898376,0.0002958479454,361.9898376,0.1292062104,
361.0578918,0.0005316088209,361.0578918,0.1285654455,
359.970459,0.0003958473681,359.970459,0.1273373216,
359.0382385,0.001122908201,359.0382385,0.1274084747,
357.9505005,-0.000804411713,357.9505005,0.1259954423,
357.0180359,0.0009040499572,357.0180359,0.1265268177,
355.9299622,-0.0005589841167,355.9299622,0.1231371239,
354.9972229,7.83897849E-5,354.9972229,0.1218729168,
354.0643311,-0.0003134177241,354.0643311,0.1221669987,
352.9758301,5.617618444E-5,352.9758301,0.1196007505,
352.0426941,0.0007727878983,352.0426941,0.1176819503,
350.9538574,0.0006467504427,350.9538574,0.1166928634,
350.0204468,0.000772113679,350.0204468,0.1137737408,
348.9313354,0.001410147059,348.9313354,0.112973474,
347.9976807,0.00014879214,347.9976807,0.1095242053,
347.0638733,0.001285689883,347.0638733,0.1083311811,
345.9743042,0.00101612485,345.9743042,0.1060224771,
345.0402527,0.002045451896,345.0402527,0.1054466516,
343.9503784,-0.000266388437,343.9503784,0.1005397514,
343.0160828,0.0009091082611,343.0160828,0.1006894112,
341.9259033,0.001412821934,341.9259033,0.09767545015,
340.991333,-0.0001560125966,340.991333,0.09486018866,
340.0566711,-0.0003153836296,340.0566711,0.09178437293,
338.9660645,-0.0001571511675,338.9660645,0.09114474803,
338.0311279,-0.0004610948672,338.0311279,0.08913927525,
336.9402161,-0.0003469404473,336.9402161,0.08596756309,
336.0050354,3.691496022E-5,336.0050354,0.08583676815,
335.0697327,-0.0001512512536,335.0697327,0.08357335627,
333.9783936,0.0001593314664,333.9783936,0.08192926645,
333.0428162,0.0001877138275,333.0428162,0.08096361905,
331.9512024,0.001653867424,331.9512024,0.07908204943,
331.0154114,-0.001162947738,331.0154114,0.07569210231,
329.9234924,0.0003905359481,329.9234924,0.07645355165,
328.9874268,0.0008986285538,328.9874268,0.0742732808,
328.0512695,0.0004415024305,328.0512695,0.07196475565,
326.9589233,-0.0002853249316,326.9589233,0.07072845101,
326.022522,0.001051906729,326.022522,0.07070237398,
324.9299011,0.000558667758,324.9299011,0.06920064241,
323.9932251,0.002045789966,323.9932251,0.06877111644,
323.0564575,0.001010805834,323.0564575,0.06597756594,
321.9634399,0.00107840111,321.9634399,0.06485598534,
321.0264282,-0.0003035363043,321.0264282,0.06551674008,
319.9331055,5.392382081E-5,319.9331055,0.06533262134,
318.9958496,-0.0004097885685,318.9958496,0.06237842888,
318.0585022,0.0005939194234,318.0585022,0.06221854687,
316.9647522,-0.000366494176,316.9647522,0.06108207256,
316.0271606,0.002344102366,316.0271606,0.06256536394,
314.9331665,0.0004302307498,314.9331665,0.06288290024,
313.9953308,0.001033794833,313.9953308,0.06468455493,
313.057373,0.0001674109371,313.057373,0.06372182816,
311.9629822,0.0005550908973,311.9629822,0.06535582244,
311.0248108,0.000772165542,311.0248108,0.06677500904,
309.9301147,0.000765708508,309.9301147,0.06844554842,
308.9916992,-0.0003585796803,308.9916992,0.07118011266,
308.0531921,0.001036104164,308.0531921,0.07707615197,
306.9581299,0.0002603873436,306.9581299,0.08050815761,
306.0193787,0.001280159922,306.0193787,0.08618223667,
304.9240417,0.0005822549574,304.9240417,0.09526254982,
303.9850464,0.001072147163,303.9850464,0.1073986441,
303.0459595,-0.00011212354,303.0459595,0.1150536537,
301.9502258,0.0007966979756,301.9502258,0.1298165768,
301.0109253,0.0009175908053,301.0109253,0.1421737373,
300.0715027,-0.0004349770024,300.0715027,0.1566575915,
298.9754028,0.0007767037023,298.9754028,0.1775984466,
298.0357666,0.0008381676162,298.0357666,0.1932061166,
296.9393921,0.0005135964602,296.9393921,0.2216067165,
295.9995422,0.0001752315875,295.9995422,0.2501107156,
295.0595703,0.0003519587626,295.0595703,0.2820463777,
293.9627991,0.0001046954712,293.9627991,0.3226352632,
293.0226135,0.001147745992,293.0226135,0.3514187932,
291.9256287,0.0005750231212,291.9256287,0.3785296381,
290.9852295,0.0002914443321,290.9852295,0.3970535994,
290.0447083,0.0003864682221,290.0447083,0.4221877754,
288.9473267,0.0008192087989,288.9473267,0.4578016102,
288.0066223,0.00101609889,288.0066223,0.4860533178,
287.0657959,0.001103911083,287.0657959,0.5134183168,
285.9680481,0.0007790375967,285.9680481,0.5486119986,
285.0270081,0.0009655837785,285.0270081,0.5736740232,
283.9290161,0.0002131714864,283.9290161,0.5898136497,
282.9877625,0.0008388419519,282.9877625,0.5991840363,
282.0464172,0.0004304639297,282.0464172,0.6067425013,
280.9480591,0.00110705127,280.9480591,0.6181031466,
280.0065002,0.001162825734,280.0065002,0.6240382195,
279.0648193,0.0001705702452,279.0648193,0.6294222474,
277.9661255,0.001575686387,277.9661255,0.6319100261,
277.0242615,0.00123563665,277.0242615,0.633577466,
275.925293,0.001214765594,275.925293,0.6304405332,
274.9832153,0.0009363463614,274.9832153,0.6215820909,
274.0410461,0.0006638868945,274.0410461,0.6175220013,
272.9417419,0.0008876821958,272.9417419,0.6112784743,
271.9993591,0.000541535439,271.9993591,0.6063194871,
271.0569153,0.001393630286,271.0569153,0.6056135893,
269.9572449,0.0004331587697,269.9572449,0.5931162834,
269.0145874,0.0003950959945,269.0145874,0.5841565132,
268.0718079,0.0008785777027,268.0718079,0.5739636421,
266.9718018,-0.00141763268,266.9718018,0.5664513111,
266.0288391,0.001254795352,266.0288391,0.5605843067,
264.9286194,8.048693417E-5,264.9286194,0.5398927331,
263.9854431,-0.0006309520104,263.9854431,0.5305947661,
263.0422058,-0.0008912706398,263.0422058,0.5223535299,
261.9416199,0.001684946241,261.9416199,0.5141018629,
260.9981689,-0.0003397498222,260.9981689,0.5073472857,
260.054657,0.0004686852917,260.054657,0.5037516356,
258.9537354,0.0019681626,258.9537354,0.4902916253,
258.0100098,0.001244255458,258.0100098,0.475581944,
257.0661926,0.0007016879972,257.0661926,0.4646265507,
255.9649506,-0.0005505560548,255.9649506,0.4511593878,
255.0209351,-0.0002909643517,255.0209351,0.4437217116,
254.076828,0.001849134569,254.076828,0.4430271685,
252.9752655,-0.0008527779137,252.9752655,0.4345645905,
252.0309753,0.001120624365,252.0309753,0.4329484403,
250.929184,0.001057355898,250.929184,0.4312485158,
249.9848022,0.000159771691,249.9848022,0.4353902936,
249.0458679,0.0003543422208,249.0458679,0.4411150217,
247.9503326,-0.00022307974,247.9503326,0.449431628,
247.0112152,0.0008765545208,247.0112152,0.4734831154,
246.0720215,-0.0004670940107,246.0720215,0.504450798,
244.9761658,0.0002284001821,244.9761658,0.5376452208,
244.0367889,0.002116746269,244.0367889,0.5712143183,
242.9407349,0.0008101835847,242.9407349,0.6396471858,
242.0011597,-0.0003997541789,242.0011597,0.7033692598,
241.0615082,-0.0005234610871,241.0615082,0.8155088425,
239.9651489,-0.0007768158102,239.9651489,0.9854285717,
239.0253143,-0.001836912706,239.0253143,1.132975459,
237.9287415,0.001612293883,237.9287415,1.3310467,
236.988739,-0.0008533979417,236.988739,1.55135119,
236.048645,-0.001349923899,236.048645,1.879273295,
234.9517822,0.003960357979,234.9517822,1.995597005,
234.0115204,-0.0017600914,234.0115204,10,
233.071167,0.000651702052,233.071167,3.207300425,
231.973999,-0.002068583621,231.973999,2.652322769,
231.0334778,0.002594597405,231.0334778,2.17160511,
229.9361115,-0.00308986241,229.9361115,10,
228.9954224,-0.002046323847,228.9954224,2.757486343,
228.054657,-0.0008356230101,228.054657,3.637776375,
226.9570007,0.007802667562,226.9570007,2.784213305,
226.0160675,0.002461886266,226.0160675,2.70973134,
225.0750427,0.004152666312,225.0750427,2.466392279,
223.9770966,0.002790079685,223.9770966,2.27772212,
223.0359192,-0.005603266414,223.0359192,2.295846701,
221.9377747,0.006717450451,221.9377747,2.877424717,
220.9964294,-0.01059756428,220.9964294,2.005980015,
220.0550079,0.001639939845,220.0550079,1.747934818,
218.9565887,0.03805340454,218.9565887,3.245296717,
218.0149994,-0.04593332484,218.0149994,2.779234171,
217.0733337,0.02694917843,217.0733337,1.399862528,
215.9746399,0.00287470757,215.9746399,1.072004437,
215.0328217,-0.03169133142,215.0328217,10,
213.9339294,0.04324261099,213.9339294,0.7362697124,
212.9919434,0.01207865123,212.9919434,1.057515025,
212.0498962,-0.06780393422,212.0498962,0.5928179622,
210.9507446,0.0917198807,210.9507446,10,
210.0085297,-0.08566567302,210.0085297,10,
209.0662384,-0.303540498,209.0662384,-0.09253787249,
207.9668274,0.1326939464,207.9668274,0.8126396537,
207.0243835,-0.1848926097,207.0243835,0.411339879,
205.9247894,0.2389049381,205.9247894,10,
204.982193,-0.237691015,204.982193,0.4537783563,
204.0395355,0.2389493138,204.0395355,10,
202.9396667,-0.5620340705,202.9396667,-0.01162995398,
201.9968567,0.1113127619,201.9968567,0.4888122976,
201.0539703,-0.09749112278,201.0539703,10,
199.9532928,-1.019442201,199.9532928,-0.9337247014,

baseline,
baseline
Collection Time: 20/12/2019 12:14:35
Operator Name  :
Scan Software Version: 3.00(339)
Parameter List :
Instrument                        Cary 50
Instrument Version                3.00
Start (nm)                        800.0
Stop (nm)                         200.0
X Mode                            Nanometers
Y Mode                            Abs
UV-Vis Scan Rate (nm/min)         4800.00
UV-Vis Data Interval (nm)         1.00
UV-Vis Ave. Time (sec)            0.0125
Beam Mode                         Dual Beam
Baseline Correction               On
Baseline Type                     Baseline correction
Baseline File Name
Baseline Std Ref File Name
Cycle Mode                        Off
Comments
Method Log     :
Method Name    :
Date/Time stamp: 20/12/2019 12:13:49
Method Modifications:
Common Interval nm Changed: 20/12/2019 12:14:10, Old:     5.00, New:     1.00
Baseline Correction Changed: 20/12/2019 12:14:10, Old:0, New:1
Storage Changed: 20/12/2019 12:14:10, Old:1, New:0
End Method Modifications
<Current Wavelength> , 202.9

bm3WT_5in1000,
bm3WT_5in1000
Collection Time: 20/12/2019 12:14:56
Operator Name  :
Scan Software Version: 3.00(339)
Parameter List :
Instrument                        Cary 50
Instrument Version                3.00
Start (nm)                        800.0
Stop (nm)                         200.0
X Mode                            Nanometers
Y Mode                            Abs
UV-Vis Scan Rate (nm/min)         4800.00
UV-Vis Data Interval (nm)         1.00
UV-Vis Ave. Time (sec)            0.0125
Beam Mode                         Dual Beam
Baseline Correction               On
Baseline Type                     Baseline correction
Baseline File Name
Baseline Std Ref File Name
Cycle Mode                        Off
Comments
Method Log     :
Method Name    :
Date/Time stamp: 20/12/2019 12:13:49
Method Modifications:
Common Interval nm Changed: 20/12/2019 12:14:10, Old:     5.00, New:     1.00
Baseline Correction Changed: 20/12/2019 12:14:10, Old:0, New:1
Storage Changed: 20/12/2019 12:14:10, Old:1, New:0
End Method Modifications
<Current Wavelength> , 202.9

